UNIX Timestamp,ECG,HR,RR,Marker
1747670844766734743,0.117
1747670844774440119,0.097
1747670844782145495,0.068
1747670844789850871,0.029
1747670844797556247,-0.022
1747670844805261623,-0.078
1747670844812966999,-0.127
1747670844820672375,-0.171
1747670844828377751,-0.20500000000000002
1747670844836083127,-0.222
1747670844843788503,-0.229
1747670844851493879,-0.234
1747670844859199255,-0.23900000000000002
1747670844866904631,-0.234
1747670844874610007,-0.222
1747670844882315383,-0.215
1747670844890020759,-0.20700000000000002
1747670844897726135,-0.20500000000000002
1747670844905431511,-0.198
1747670844913136887,-0.18
1747670844920842263,-0.171
1747670844928547639,-0.168
1747670844936253015,-0.161
1747670844943958391,-0.158
1747670844951663767,-0.158
1747670844959369143,-0.151
1747670844967074519,-0.149
1747670844974779895,-0.149
1747670844982485271,-0.151
1747670844990190647,-0.151
1747670844997896023,-0.156
1747670845005601399,-0.154
1747670845013306775,-0.14400000000000002
1747670845021012151,-0.146
1747670845028717527,-0.154
1747670845036422903,-0.156
1747670845044128279,-0.149
1747670845051833655,-0.136
1747670845059539031,-0.14100000000000001
1747670845067244407,-0.156
1747670845074949783,-0.151
1747670845082655159,-0.146
1747670845090360535,-0.149
1747670845098065911,-0.156
1747670845105771287,-0.158
1747670845113476663,-0.163
1747670845121182039,-0.151
1747670845128887415,-0.122
1747670845136592791,-0.107
1747670845144298167,-0.112
1747670845152003543,-0.11
1747670845159708919,-0.105
1747670845167414295,-0.117
1747670845175119671,-0.136
1747670845182825047,-0.139
1747670845190530423,-0.132
1747670845198235799,-0.139
1747670845205941175,-0.146
1747670845213646551,-0.14400000000000002
1747670845221351927,-0.149
1747670845229057303,-0.178
1747670845236762679,-0.17300000000000001
1747670845244468055,-0.002
1747670845252173431,0.496
1747670845259878807,0.9480000000000001
1747670845267584183,0.222
1747670845275289559,-1.046
1747670845282994935,-0.912
1747670845290700311,-0.2
1747670845298405687,-0.246
1747670845306111063,-0.278
1747670845313816439,-0.058
1747670845321521815,-0.085
1747670845329227260,-0.158,92,661
1747670845336932636,-0.09,,710
1747670845344638012,-0.075
1747670845352343388,-0.105
1747670845360048764,-0.085
1747670845367754140,-0.07
1747670845375459516,-0.085
1747670845383164892,-0.085
1747670845390870268,-0.061
1747670845398575644,-0.048
1747670845406281020,-0.044
1747670845413986396,-0.019
1747670845421691772,0.0
1747670845429397148,0.012
1747670845437102524,0.039
1747670845444807900,0.073
1747670845452513276,0.085
1747670845460218652,0.09
1747670845467924028,0.092
1747670845475629404,0.075
1747670845483334780,0.046
1747670845491040156,0.024
1747670845498745532,-0.007
1747670845506450908,-0.063
1747670845514156284,-0.124
1747670845521861660,-0.171
1747670845529567036,-0.198
1747670845537272412,-0.212
1747670845544977788,-0.227
1747670845552683164,-0.23900000000000002
1747670845560388540,-0.23900000000000002
1747670845568093916,-0.227
1747670845575799292,-0.222
1747670845583504668,-0.227
1747670845591210044,-0.229
1747670845598915420,-0.222
1747670845606620796,-0.198
1747670845614326172,-0.18
1747670845622031548,-0.18
1747670845629736924,-0.178
1747670845637442300,-0.166
1747670845645147676,-0.158
1747670845652853052,-0.154
1747670845660558428,-0.14100000000000001
1747670845668263804,-0.139
1747670845675969180,-0.146
1747670845683674556,-0.149
1747670845691379932,-0.149
1747670845699085308,-0.149
1747670845706790684,-0.149
1747670845714496060,-0.151
1747670845722201436,-0.156
1747670845729906812,-0.151
1747670845737612188,-0.14400000000000002
1747670845745317564,-0.14400000000000002
1747670845753022940,-0.146
1747670845760728316,-0.136
1747670845768433692,-0.134
1747670845776139068,-0.151
1747670845783844444,-0.156
1747670845791549820,-0.146
1747670845799255196,-0.14400000000000002
1747670845806960572,-0.149
1747670845814665948,-0.158
1747670845822371324,-0.168
1747670845830076700,-0.166
1747670845837782076,-0.146
1747670845845487452,-0.122
1747670845853192828,-0.107
1747670845860898204,-0.105
1747670845868603580,-0.095
1747670845876308956,-0.105
1747670845884014332,-0.139
1747670845891719777,-0.146
1747670845899425153,-0.139
1747670845907130529,-0.146
1747670845914835905,-0.154
1747670845922541281,-0.14400000000000002
1747670845930246657,-0.14100000000000001
1747670845937952033,-0.168
1747670845945657409,-0.212
1747670845953362785,-0.178
1747670845961068161,0.063
1747670845968773537,0.613
1747670845976478913,0.9580000000000001
1747670845984184289,0.107
1747670845991889665,-1.0050000000000001
1747670845999595041,-0.74
1747670846007300417,-0.156
1747670846015005793,-0.249
1747670846022711169,-0.249
1747670846030416545,-0.09
1747670846038121921,-0.132
1747670846045827297,-0.168
1747670846053532673,-0.112
1747670846061238049,-0.105
1747670846068943425,-0.127
1747670846076648801,-0.11900000000000001
1747670846084354177,-0.105
1747670846092059553,-0.095
1747670846099764929,-0.085
1747670846107470305,-0.078
1747670846115175681,-0.075
1747670846122881057,-0.061
1747670846130586433,-0.036000000000000004
1747670846138291809,-0.017
1747670846145997185,0.004
1747670846153702561,0.029
1747670846161407937,0.046
1747670846169113313,0.061
1747670846176818689,0.075
1747670846184524065,0.073
1747670846192229441,0.061
1747670846199934817,0.039
1747670846207640193,0.009000000000000001
1747670846215345569,-0.034
1747670846223050945,-0.088
1747670846230756321,-0.14100000000000001
1747670846238461697,-0.176
1747670846246167073,-0.188
1747670846253872449,-0.20700000000000002
1747670846261577825,-0.229
1747670846269283201,-0.232
1747670846276988577,-0.229
1747670846284693953,-0.229
1747670846292399329,-0.229
1747670846300104705,-0.227
1747670846307810081,-0.222
1747670846315515457,-0.212
1747670846323220833,-0.198
1747670846330926209,-0.183
1747670846338631585,-0.178
1747670846346336961,-0.176
1747670846354042337,-0.166
1747670846361747713,-0.158
1747670846369453089,-0.156
1747670846377158465,-0.151
1747670846384863841,-0.14400000000000002
1747670846392569217,-0.14100000000000001
1747670846400274593,-0.14400000000000002
1747670846407979969,-0.139
1747670846415685345,-0.139
1747670846423390721,-0.14100000000000001
1747670846431096097,-0.14100000000000001
1747670846438801473,-0.14400000000000002
1747670846446506849,-0.14400000000000002
1747670846454212294,-0.139,91,706
1747670846461917670,-0.14400000000000002
1747670846469623046,-0.151
1747670846477328422,-0.14400000000000002
1747670846485033798,-0.134
1747670846492739174,-0.14400000000000002
1747670846500444550,-0.146
1747670846508149926,-0.136
1747670846515855302,-0.14100000000000001
1747670846523560678,-0.151
1747670846531266054,-0.14100000000000001
1747670846538971430,-0.134
1747670846546676806,-0.151
1747670846554382182,-0.163
1747670846562087558,-0.151
1747670846569792934,-0.129
1747670846577498310,-0.117
1747670846585203686,-0.112
1747670846592909062,-0.107
1747670846600614438,-0.095
1747670846608319814,-0.097
1747670846616025190,-0.124
1747670846623730566,-0.14100000000000001
1747670846631435942,-0.139
1747670846639141318,-0.139
1747670846646846694,-0.14400000000000002
1747670846654552070,-0.14400000000000002
1747670846662257446,-0.14100000000000001
1747670846669962822,-0.156
1747670846677668198,-0.19
1747670846685373574,-0.161
1747670846693078950,0.085
1747670846700784326,0.652
1747670846708489702,0.963
1747670846716195078,0.046
1747670846723900454,-1.022
1747670846731605830,-0.6920000000000001
1747670846739311206,-0.124
1747670846747016582,-0.232
1747670846754721958,-0.23700000000000002
1747670846762427334,-0.09
1747670846770132710,-0.129
1747670846777838086,-0.166
1747670846785543462,-0.112
1747670846793248838,-0.10200000000000001
1747670846800954214,-0.127
1747670846808659590,-0.124
1747670846816364966,-0.10200000000000001
1747670846824070342,-0.078
1747670846831775718,-0.068
1747670846839481094,-0.07
1747670846847186470,-0.066
1747670846854891846,-0.061
1747670846862597222,-0.044
1747670846870302598,-0.012
1747670846878007974,0.012
1747670846885713350,0.034
1747670846893418726,0.061
1747670846901124102,0.073
1747670846908829478,0.07
1747670846916534854,0.07
1747670846924240230,0.07
1747670846931945606,0.051000000000000004
1747670846939650982,0.014
1747670846947356358,-0.022
1747670846955061734,-0.07
1747670846962767110,-0.129
1747670846970472486,-0.166
1747670846978177862,-0.188
1747670846985883238,-0.20500000000000002
1747670846993588614,-0.215
1747670847001293990,-0.227
1747670847008999366,-0.229
1747670847016704811,-0.217
1747670847024410187,-0.21
1747670847032115563,-0.21
1747670847039820939,-0.20500000000000002
1747670847047526315,-0.19
1747670847055231691,-0.178
1747670847062937067,-0.185
1747670847070642443,-0.19
1747670847078347819,-0.17300000000000001
1747670847086053195,-0.158
1747670847093758571,-0.154
1747670847101463947,-0.146
1747670847109169323,-0.14100000000000001
1747670847116874699,-0.14100000000000001
1747670847124580075,-0.136
1747670847132285451,-0.134
1747670847139990827,-0.14100000000000001
1747670847147696203,-0.14100000000000001
1747670847155401579,-0.139
1747670847163106955,-0.136
1747670847170812331,-0.124
1747670847178517707,-0.124
1747670847186223083,-0.14100000000000001
1747670847193928459,-0.134
1747670847201633835,-0.122
1747670847209339211,-0.139
1747670847217044587,-0.14100000000000001
1747670847224749963,-0.132
1747670847232455339,-0.132
1747670847240160715,-0.134
1747670847247866091,-0.136
1747670847255571467,-0.14100000000000001
1747670847263276843,-0.136
1747670847270982219,-0.134
1747670847278687595,-0.132
1747670847286392971,-0.132
1747670847294098347,-0.136
1747670847301803723,-0.14100000000000001
1747670847309509099,-0.151
1747670847317214475,-0.14100000000000001
1747670847324919851,-0.107
1747670847332625227,-0.088
1747670847340330603,-0.09
1747670847348035979,-0.08
1747670847355741355,-0.085
1747670847363446731,-0.112
1747670847371152107,-0.127
1747670847378857483,-0.114
1747670847386562859,-0.11
1747670847394268235,-0.136
1747670847401973611,-0.149
1747670847409678987,-0.11900000000000001
1747670847417384363,-0.124
1747670847425089739,-0.171
1747670847432795115,-0.154
1747670847440500491,0.056
1747670847448205867,0.55
1747670847455911243,0.914
1747670847463616619,0.129
1747670847471321995,-1.046
1747670847479027371,-0.8260000000000001
1747670847486732747,-0.156
1747670847494438123,-0.224
1747670847502143499,-0.242
1747670847509848875,-0.046
1747670847517554251,-0.083
1747670847525259627,-0.14100000000000001
1747670847532965003,-0.075
1747670847540670379,-0.066
1747670847548375755,-0.083
1747670847556081131,-0.063
1747670847563786507,-0.063
1747670847571491883,-0.083
1747670847579197328,-0.066,90,704
1747670847586902844,-0.034
1747670847594608360,-0.026000000000000002
1747670847602313876,-0.029
1747670847610019392,-0.014
1747670847617724908,0.014
1747670847625430424,0.044
1747670847633135940,0.073
1747670847640841456,0.10200000000000001
1747670847648546972,0.122
1747670847656252488,0.132
1747670847663958004,0.134
1747670847671663520,0.132
1747670847679369036,0.112
1747670847687074552,0.073
1747670847694780068,0.026000000000000002
1747670847702485584,-0.022
1747670847710191100,-0.095
1747670847717896616,-0.166
1747670847725602132,-0.185
1747670847733307648,-0.193
1747670847741013164,-0.215
1747670847748718680,-0.22
1747670847756424196,-0.22
1747670847764129712,-0.232
1747670847771835228,-0.227
1747670847779540744,-0.20700000000000002
1747670847787246260,-0.20500000000000002
1747670847794951776,-0.20500000000000002
1747670847802657292,-0.188
1747670847810362808,-0.176
1747670847818068324,-0.18
1747670847825773840,-0.176
1747670847833479356,-0.158
1747670847841184872,-0.151
1747670847848890388,-0.14400000000000002
1747670847856595904,-0.14100000000000001
1747670847864301420,-0.134
1747670847872006936,-0.127
1747670847879712452,-0.127
1747670847887417968,-0.129
1747670847895123484,-0.136
1747670847902829000,-0.136
1747670847910534516,-0.134
1747670847918240032,-0.136
1747670847925945548,-0.14100000000000001
1747670847933651064,-0.136
1747670847941356580,-0.134
1747670847949062096,-0.14100000000000001
1747670847956767612,-0.14400000000000002
1747670847964473128,-0.129
1747670847972178644,-0.117
1747670847979884160,-0.129
1747670847987589676,-0.146
1747670847995295192,-0.151
1747670848003000708,-0.14400000000000002
1747670848010706224,-0.14100000000000001
1747670848018411740,-0.139
1747670848026117256,-0.11900000000000001
1747670848033822772,-0.107
1747670848041528288,-0.10200000000000001
1747670848049233804,-0.09
1747670848056939320,-0.09
1747670848064644836,-0.11
1747670848072350352,-0.114
1747670848080055868,-0.112
1747670848087761384,-0.124
1747670848095466900,-0.127
1747670848103172416,-0.112
1747670848110877932,-0.117
1747670848118583448,-0.149
1747670848126288964,-0.17300000000000001
1747670848133994480,-0.136
1747670848141700015,0.063,89,716
1747670848149405670,0.5690000000000001,,731
1747670848157111325,0.855
1747670848164816980,-0.1
1747670848172522635,-1.203
1747670848180228290,-0.792
1747670848187933945,-0.158
1747670848195639600,-0.278
1747670848203345255,-0.212
1747670848211050910,0.004
1747670848218756565,-0.07
1747670848226462220,-0.11
1747670848234167875,-0.022
1747670848241873530,-0.039
1747670848249579185,-0.08
1747670848257284840,-0.051000000000000004
1747670848264990495,-0.034
1747670848272696150,-0.046
1747670848280401805,-0.039
1747670848288107460,-0.022
1747670848295813115,-0.017
1747670848303518770,-0.007
1747670848311224425,0.017
1747670848318930080,0.039
1747670848326635735,0.058
1747670848334341390,0.092
1747670848342047045,0.132
1747670848349752700,0.156
1747670848357458355,0.149
1747670848365164010,0.14100000000000001
1747670848372869665,0.14100000000000001
1747670848380575320,0.122
1747670848388280975,0.078
1747670848395986630,0.019
1747670848403692285,-0.046
1747670848411397940,-0.114
1747670848419103595,-0.17300000000000001
1747670848426809250,-0.202
1747670848434514905,-0.212
1747670848442220560,-0.22
1747670848449926215,-0.23900000000000002
1747670848457631870,-0.266
1747670848465337525,-0.259
1747670848473043180,-0.23700000000000002
1747670848480748835,-0.234
1747670848488454490,-0.234
1747670848496160145,-0.212
1747670848503865800,-0.193
1747670848511571455,-0.2
1747670848519277110,-0.202
1747670848526982765,-0.17300000000000001
1747670848534688420,-0.151
1747670848542394075,-0.149
1747670848550099730,-0.149
1747670848557805385,-0.146
1747670848565511040,-0.146
1747670848573216695,-0.154
1747670848580922350,-0.14100000000000001
1747670848588628005,-0.11900000000000001
1747670848596333660,-0.129
1747670848604039315,-0.149
1747670848611744970,-0.132
1747670848619450625,-0.132
1747670848627156280,-0.161
1747670848634861935,-0.161
1747670848642567590,-0.146
1747670848650273245,-0.163
1747670848657978900,-0.17300000000000001
1747670848665684555,-0.14100000000000001
1747670848673390210,-0.122
1747670848681095865,-0.134
1747670848688801520,-0.127
1747670848696507175,-0.11
1747670848704212880,-0.124
1747670848711917838,-0.134
1747670848719622796,-0.127
1747670848727327754,-0.134
1747670848735032712,-0.161
1747670848742737670,-0.166
1747670848750442628,-0.149
1747670848758147586,-0.158
1747670848765852544,-0.195
1747670848773557502,-0.202
1747670848781262460,-0.092
1747670848788967418,0.308
1747670848796672376,0.899
1747670848804377334,0.542
1747670848812082292,-0.8210000000000001
1747670848819787250,-1.12
1747670848827492208,-0.357
1747670848835197166,-0.212
1747670848842902124,-0.325
1747670848850607082,-0.112
1747670848858312040,-0.068
1747670848866016998,-0.154
1747670848873721956,-0.097
1747670848881426914,-0.083
1747670848889131872,-0.124
1747670848896836830,-0.088
1747670848904541788,-0.053
1747670848912246746,-0.075
1747670848919951704,-0.083
1747670848927656662,-0.075
1747670848935361620,-0.07
1747670848943066578,-0.056
1747670848950771536,-0.029
1747670848958476494,-0.014
1747670848966181452,-0.004
1747670848973886410,0.029
1747670848981591368,0.075
1747670848989296326,0.107
1747670848997001284,0.122
1747670849004706242,0.122
1747670849012411200,0.11
1747670849020116158,0.07
1747670849027821116,0.026000000000000002
1747670849035526074,-0.012
1747670849043231032,-0.066
1747670849050935990,-0.112
1747670849058640948,-0.14100000000000001
1747670849066345906,-0.21
1747670849074050864,-0.269
1747670849081755822,-0.254
1747670849089460780,-0.244
1747670849097165738,-0.269
1747670849104870696,-0.246
1747670849112575654,-0.212
1747670849120280612,-0.234
1747670849127985570,-0.261
1747670849135690528,-0.23900000000000002
1747670849143395486,-0.212
1747670849151100444,-0.21
1747670849158805402,-0.202
1747670849166510360,-0.176
1747670849174215318,-0.163
1747670849181920276,-0.183
1747670849189625234,-0.168
1747670849197330192,-0.134
1747670849205035150,-0.151
1747670849212740108,-0.163
1747670849220445066,-0.134
1747670849228150024,-0.122
1747670849235854982,-0.14400000000000002
1747670849243559940,-0.156
1747670849251264898,-0.156
1747670849258969856,-0.154
1747670849266674875,-0.146,88,748
1747670849274380252,-0.158
1747670849282085629,-0.166
1747670849289791006,-0.134
1747670849297496383,-0.136
1747670849305201760,-0.163
1747670849312907137,-0.124
1747670849320612514,-0.09
1747670849328317891,-0.124
1747670849336023268,-0.156
1747670849343728645,-0.14100000000000001
1747670849351434022,-0.139
1747670849359139399,-0.154
1747670849366844776,-0.149
1747670849374550153,-0.14400000000000002
1747670849382255530,-0.168
1747670849389960907,-0.195
1747670849397666284,-0.198
1747670849405371661,-0.083
1747670849413077038,0.335
1747670849420782415,0.9510000000000001
1747670849428487792,0.645
1747670849436193169,-0.706
1747670849443898546,-1.053
1747670849451603923,-0.325
1747670849459309300,-0.185
1747670849467014677,-0.313
1747670849474720054,-0.127
1747670849482425431,-0.095
1747670849490130808,-0.193
1747670849497836185,-0.134
1747670849505541562,-0.08
1747670849513246939,-0.107
1747670849520952316,-0.11900000000000001
1747670849528657693,-0.112
1747670849536363070,-0.11
1747670849544068447,-0.095
1747670849551773824,-0.07
1747670849559479201,-0.061
1747670849567184578,-0.056
1747670849574889955,-0.044
1747670849582595332,-0.024
1747670849590300709,-0.009000000000000001
1747670849598006086,0.009000000000000001
1747670849605711463,0.048
1747670849613416840,0.085
1747670849621122217,0.092
1747670849628827594,0.095
1747670849636532971,0.105
1747670849644238348,0.085
1747670849651943725,0.029
1747670849659649102,-0.024
1747670849667354479,-0.07
1747670849675059856,-0.124
1747670849682765233,-0.178
1747670849690470610,-0.20500000000000002
1747670849698175987,-0.215
1747670849705881364,-0.232
1747670849713586741,-0.244
1747670849721292118,-0.242
1747670849728997495,-0.227
1747670849736702872,-0.22
1747670849744408249,-0.222
1747670849752113626,-0.227
1747670849759819003,-0.229
1747670849767524380,-0.224
1747670849775229757,-0.20700000000000002
1747670849782935134,-0.178
1747670849790640511,-0.166
1747670849798345888,-0.178
1747670849806051265,-0.166
1747670849813756642,-0.14100000000000001
1747670849821462019,-0.151
1747670849829167396,-0.154
1747670849836872772,-0.14100000000000001
1747670849844578148,-0.151
1747670849852283524,-0.154
1747670849859988900,-0.139
1747670849867694276,-0.11900000000000001
1747670849875399652,-0.112
1747670849883105028,-0.146
1747670849890810404,-0.158
1747670849898515780,-0.136
1747670849906221156,-0.149
1747670849913926532,-0.17300000000000001
1747670849921631908,-0.166
1747670849929337284,-0.154
1747670849937042660,-0.149
1747670849944748036,-0.132
1747670849952453412,-0.112
1747670849960158788,-0.105
1747670849967864164,-0.117
1747670849975569540,-0.127
1747670849983274916,-0.114
1747670849990980292,-0.11900000000000001
1747670849998685668,-0.146
1747670850006391044,-0.14400000000000002
1747670850014096420,-0.124
1747670850021801796,-0.129
1747670850029507172,-0.14400000000000002
1747670850037212548,-0.154
1747670850044917924,-0.171
1747670850052623300,-0.193
1747670850060328676,-0.136
1747670850068034052,0.156
1747670850075739428,0.789
1747670850083444804,0.965
1747670850091150180,-0.183
1747670850098855556,-1.105
1747670850106560932,-0.555
1747670850114266308,-0.105
1747670850121971684,-0.295
1747670850129677060,-0.217
1747670850137382436,-0.073
1747670850145087812,-0.154
1747670850152793188,-0.14400000000000002
1747670850160498564,-0.085
1747670850168203940,-0.129
1747670850175909316,-0.136
1747670850183614692,-0.08
1747670850191320068,-0.083
1747670850199025444,-0.112
1747670850206730820,-0.1
1747670850214436196,-0.078
1747670850222141572,-0.061
1747670850229846948,-0.031
1747670850237552324,-0.009000000000000001
1747670850245257700,-0.019
1747670850252963076,-0.012
1747670850260668452,0.024
1747670850268373828,0.053
1747670850276079204,0.068
1747670850283784580,0.083
1747670850291489956,0.09
1747670850299195332,0.08
1747670850306900708,0.058
1747670850314606084,0.009000000000000001
1747670850322311460,-0.056
1747670850330016836,-0.105
1747670850337722212,-0.134
1747670850345427588,-0.178
1747670850353132964,-0.212
1747670850360838340,-0.222
1747670850368543716,-0.227
1747670850376249092,-0.23700000000000002
1747670850383954468,-0.232
1747670850391659913,-0.222,86,700
1747670850399365289,-0.227,,644
1747670850407070665,-0.222
1747670850414776041,-0.20500000000000002
1747670850422481417,-0.202
1747670850430186793,-0.212
1747670850437892169,-0.2
1747670850445597545,-0.168
1747670850453302921,-0.163
1747670850461008297,-0.178
1747670850468713673,-0.171
1747670850476419049,-0.154
1747670850484124425,-0.168
1747670850491829801,-0.18
1747670850499535177,-0.154
1747670850507240553,-0.124
1747670850514945929,-0.132
1747670850522651305,-0.139
1747670850530356681,-0.117
1747670850538062057,-0.114
1747670850545767433,-0.151
1747670850553472809,-0.158
1747670850561178185,-0.136
1747670850568883561,-0.134
1747670850576588937,-0.146
1747670850584294313,-0.139
1747670850591999689,-0.117
1747670850599705065,-0.112
1747670850607410441,-0.134
1747670850615115817,-0.154
1747670850622821193,-0.14400000000000002
1747670850630526569,-0.129
1747670850638231945,-0.132
1747670850645937321,-0.132
1747670850653642697,-0.132
1747670850661348073,-0.134
1747670850669053449,-0.127
1747670850676758825,-0.117
1747670850684464201,-0.129
1747670850692169577,-0.146
1747670850699874953,-0.149
1747670850707580329,-0.139
1747670850715285705,-0.122
1747670850722991081,-0.11900000000000001
1747670850730696457,-0.124
1747670850738401833,-0.112
1747670850746107209,-0.09
1747670850753812585,-0.088
1747670850761517961,-0.10200000000000001
1747670850769223337,-0.114
1747670850776928713,-0.11900000000000001
1747670850784634089,-0.117
1747670850792339465,-0.122
1747670850800044841,-0.132
1747670850807750217,-0.14100000000000001
1747670850815455593,-0.14100000000000001
1747670850823160969,-0.151
1747670850830866345,-0.18
1747670850838571721,-0.10200000000000001
1747670850846277097,0.254
1747670850853982473,0.892
1747670850861687849,0.9530000000000001
1747670850869393225,-0.222
1747670850877098601,-1.0070000000000001
1747670850884803977,-0.481
1747670850892509353,-0.14100000000000001
1747670850900214729,-0.28800000000000003
1747670850907920105,-0.185
1747670850915625481,-0.08
1747670850923330857,-0.151
1747670850931036233,-0.149
1747670850938741609,-0.107
1747670850946446985,-0.114
1747670850954152430,-0.105
1747670850961857806,-0.1
1747670850969563182,-0.11
1747670850977268558,-0.09
1747670850984973934,-0.063
1747670850992679310,-0.068
1747670851000384686,-0.07
1747670851008090062,-0.041
1747670851015795438,-0.022
1747670851023500814,-0.024
1747670851031206190,-0.007
1747670851038911566,0.017
1747670851046616942,0.053
1747670851054322318,0.092
1747670851062027694,0.107
1747670851069733070,0.1
1747670851077438446,0.068
1747670851085143822,0.026000000000000002
1747670851092849198,0.022
1747670851100554574,0.009000000000000001
1747670851108259950,-0.068
1747670851115965326,-0.154
1747670851123670702,-0.168
1747670851131376078,-0.156
1747670851139081454,-0.158
1747670851146786830,-0.176
1747670851154492206,-0.21
1747670851162197582,-0.212
1747670851169902958,-0.185
1747670851177608334,-0.20700000000000002
1747670851185313710,-0.222
1747670851193019086,-0.195
1747670851200724462,-0.176
1747670851208429838,-0.168
1747670851216135214,-0.163
1747670851223840590,-0.171
1747670851231545966,-0.171
1747670851239251342,-0.154
1747670851246956718,-0.14400000000000002
1747670851254662094,-0.151
1747670851262367470,-0.156
1747670851270072846,-0.154
1747670851277778222,-0.14100000000000001
1747670851285483598,-0.124
1747670851293188974,-0.114
1747670851300894350,-0.11900000000000001
1747670851308599726,-0.134
1747670851316305102,-0.129
1747670851324010478,-0.095
1747670851331715854,-0.11
1747670851339421230,-0.163
1747670851347126606,-0.149
1747670851354831982,-0.117
1747670851362537358,-0.139
1747670851370242734,-0.151
1747670851377948110,-0.132
1747670851385653486,-0.127
1747670851393358862,-0.132
1747670851401064238,-0.129
1747670851408769614,-0.124
1747670851416474990,-0.114
1747670851424180366,-0.105
1747670851431885742,-0.134
1747670851439591118,-0.151
1747670851447296494,-0.114
1747670851455001870,-0.105
1747670851462707246,-0.14100000000000001
1747670851470412622,-0.139
1747670851478117998,-0.112
1747670851485823374,-0.11900000000000001
1747670851493528750,-0.124
1747670851501234126,-0.11
1747670851508939502,-0.11
1747670851516644947,-0.127,87,624
1747670851524350323,-0.136
1747670851532055699,-0.134
1747670851539761075,-0.132
1747670851547466451,-0.122
1747670851555171827,-0.105
1747670851562877203,-0.092
1747670851570582579,-0.085
1747670851578287955,-0.075
1747670851585993331,-0.08
1747670851593698707,-0.095
1747670851601404083,-0.105
1747670851609109459,-0.11
1747670851616814835,-0.114
1747670851624520211,-0.112
1747670851632225587,-0.107
1747670851639930963,-0.112
1747670851647636339,-0.129
1747670851655341715,-0.166
1747670851663047091,-0.14100000000000001
1747670851670752467,0.095
1747670851678457843,0.64
1747670851686163219,1.012
1747670851693868595,0.19
1747670851701573971,-0.975
1747670851709279347,-0.748
1747670851716984723,-0.134
1747670851724690099,-0.22
1747670851732395475,-0.232
1747670851740100851,-0.061
1747670851747806227,-0.095
1747670851755511603,-0.134
1747670851763216979,-0.078
1747670851770922355,-0.073
1747670851778627731,-0.097
1747670851786333107,-0.078
1747670851794038483,-0.066
1747670851801743859,-0.075
1747670851809449235,-0.068
1747670851817154611,-0.053
1747670851824859987,-0.046
1747670851832565363,-0.036000000000000004
1747670851840270739,-0.017
1747670851847976115,0.002
1747670851855681491,0.022
1747670851863386867,0.046
1747670851871092243,0.078
1747670851878797619,0.1
1747670851886502995,0.11
1747670851894208371,0.114
1747670851901913747,0.117
1747670851909619123,0.107
1747670851917324499,0.073
1747670851925029875,0.026000000000000002
1747670851932735251,-0.022
1747670851940440627,-0.08
1747670851948146003,-0.129
1747670851955851379,-0.158
1747670851963556755,-0.183
1747670851971262131,-0.202
1747670851978967507,-0.215
1747670851986672883,-0.212
1747670851994378259,-0.20700000000000002
1747670852002083635,-0.21
1747670852009789011,-0.202
1747670852017494387,-0.198
1747670852025199763,-0.193
1747670852032905139,-0.185
1747670852040610515,-0.178
1747670852048315891,-0.17300000000000001
1747670852056021267,-0.168
1747670852063726643,-0.158
1747670852071432019,-0.149
1747670852079137464,-0.146,88,657
1747670852086842840,-0.14100000000000001
1747670852094548216,-0.136
1747670852102253592,-0.129
1747670852109958968,-0.122
1747670852117664344,-0.11900000000000001
1747670852125369720,-0.124
1747670852133075096,-0.122
1747670852140780472,-0.11900000000000001
1747670852148485848,-0.114
1747670852156191224,-0.114
1747670852163896600,-0.11900000000000001
1747670852171601976,-0.117
1747670852179307352,-0.117
1747670852187012728,-0.122
1747670852194718104,-0.124
1747670852202423480,-0.122
1747670852210128856,-0.11900000000000001
1747670852217834232,-0.122
1747670852225539608,-0.124
1747670852233244984,-0.122
1747670852240950360,-0.11900000000000001
1747670852248655736,-0.114
1747670852256361112,-0.114
1747670852264066488,-0.114
1747670852271771864,-0.112
1747670852279477240,-0.107
1747670852287182616,-0.112
1747670852294887992,-0.114
1747670852302593368,-0.114
1747670852310298744,-0.11
1747670852318004120,-0.11
1747670852325709496,-0.112
1747670852333414872,-0.112
1747670852341120248,-0.11900000000000001
1747670852348825624,-0.127
1747670852356531000,-0.127
1747670852364236376,-0.124
1747670852371941752,-0.11
1747670852379647128,-0.09
1747670852387352504,-0.088
1747670852395057880,-0.095
1747670852402763256,-0.09
1747670852410468632,-0.083
1747670852418174008,-0.1
1747670852425879384,-0.127
1747670852433584760,-0.117
1747670852441290136,-0.105
1747670852448995512,-0.127
1747670852456700888,-0.134
1747670852464406264,-0.124
1747670852472111640,-0.146
1747670852479817016,-0.161
1747670852487522392,-0.041
1747670852495227768,0.366
1747670852502933144,0.885
1747670852510638520,0.41000000000000003
1747670852518343896,-0.912
1747670852526049272,-1.046
1747670852533754648,-0.271
1747670852541460024,-0.202
1747670852549165400,-0.31
1747670852556870776,-0.08
1747670852564576152,-0.039
1747670852572281528,-0.117
1747670852579986904,-0.066
1747670852587692280,-0.056
1747670852595397656,-0.09
1747670852603103032,-0.07
1747670852610808408,-0.056
1747670852618513784,-0.068
1747670852626219160,-0.053
1747670852633924536,-0.029
1747670852641629981,-0.024
1747670852649335288,-0.019
1747670852657040595,-0.004
1747670852664745902,0.014
1747670852672451209,0.034
1747670852680156516,0.051000000000000004
1747670852687861823,0.075
1747670852695567130,0.11
1747670852703272437,0.134
1747670852710977744,0.149
1747670852718683051,0.146
1747670852726388358,0.124
1747670852734093665,0.095
1747670852741798972,0.056
1747670852749504279,0.0
1747670852757209586,-0.058
1747670852764914893,-0.122
1747670852772620200,-0.17300000000000001
1747670852780325507,-0.195
1747670852788030814,-0.212
1747670852795736121,-0.227
1747670852803441428,-0.227
1747670852811146735,-0.217
1747670852818852042,-0.217
1747670852826557349,-0.22
1747670852834262656,-0.21
1747670852841967963,-0.202
1747670852849673270,-0.202
1747670852857378577,-0.2
1747670852865083884,-0.193
1747670852872789191,-0.18
1747670852880494498,-0.163
1747670852888199805,-0.151
1747670852895905112,-0.146
1747670852903610419,-0.136
1747670852911315726,-0.11900000000000001
1747670852919021033,-0.11900000000000001
1747670852926726340,-0.132
1747670852934431647,-0.139
1747670852942136954,-0.139
1747670852949842261,-0.136
1747670852957547568,-0.139
1747670852965252875,-0.136
1747670852972958182,-0.127
1747670852980663489,-0.122
1747670852988368796,-0.129
1747670852996074103,-0.14100000000000001
1747670853003779410,-0.149
1747670853011484717,-0.139
1747670853019190024,-0.134
1747670853026895331,-0.134
1747670853034600638,-0.127
1747670853042305945,-0.127
1747670853050011252,-0.132
1747670853057716559,-0.134
1747670853065421866,-0.136
1747670853073127173,-0.132
1747670853080832480,-0.124
1747670853088537787,-0.124
1747670853096243094,-0.129
1747670853103948401,-0.127
1747670853111653708,-0.127
1747670853119359015,-0.129
1747670853127064322,-0.124
1747670853134769629,-0.132
1747670853142474936,-0.154
1747670853150180243,-0.156
1747670853157885550,-0.146
1747670853165590857,-0.127
1747670853173296164,-0.105
1747670853181001471,-0.105
1747670853188706778,-0.1
1747670853196412085,-0.09
1747670853204117411,-0.1,88,777
1747670853211822439,-0.117,,827
1747670853219527467,-0.117
1747670853227232495,-0.114
1747670853234937523,-0.129
1747670853242642551,-0.139
1747670853250347579,-0.124
1747670853258052607,-0.124
1747670853265757635,-0.166
1747670853273462663,-0.185
1747670853281167691,-0.066
1747670853288872719,0.308
1747670853296577747,0.846
1747670853304282775,0.5670000000000001
1747670853311987803,-0.6940000000000001
1747670853319692831,-1.046
1747670853327397859,-0.33
1747670853335102887,-0.161
1747670853342807915,-0.291
1747670853350512943,-0.1
1747670853358217971,-0.041
1747670853365922999,-0.14100000000000001
1747670853373628027,-0.11
1747670853381333055,-0.061
1747670853389038083,-0.08
1747670853396743111,-0.085
1747670853404448139,-0.075
1747670853412153167,-0.075
1747670853419858195,-0.068
1747670853427563223,-0.056
1747670853435268251,-0.046
1747670853442973279,-0.041
1747670853450678307,-0.031
1747670853458383335,-0.012
1747670853466088363,0.014
1747670853473793391,0.034
1747670853481498419,0.053
1747670853489203447,0.085
1747670853496908475,0.114
1747670853504613503,0.127
1747670853512318531,0.127
1747670853520023559,0.112
1747670853527728587,0.088
1747670853535433615,0.046
1747670853543138643,-0.007
1747670853550843671,-0.066
1747670853558548699,-0.11900000000000001
1747670853566253727,-0.158
1747670853573958755,-0.193
1747670853581663783,-0.217
1747670853589368811,-0.227
1747670853597073839,-0.227
1747670853604778867,-0.224
1747670853612483895,-0.22
1747670853620188923,-0.224
1747670853627893951,-0.224
1747670853635598979,-0.222
1747670853643304007,-0.217
1747670853651009035,-0.21
1747670853658714063,-0.2
1747670853666419091,-0.188
1747670853674124119,-0.178
1747670853681829147,-0.166
1747670853689534175,-0.156
1747670853697239203,-0.151
1747670853704944231,-0.146
1747670853712649259,-0.136
1747670853720354287,-0.124
1747670853728059315,-0.122
1747670853735764343,-0.124
1747670853743469371,-0.124
1747670853751174399,-0.127
1747670853758879427,-0.134
1747670853766584497,-0.136
1747670853774289873,-0.134
1747670853781995249,-0.139
1747670853789700625,-0.14400000000000002
1747670853797406001,-0.132
1747670853805111377,-0.124
1747670853812816753,-0.129
1747670853820522129,-0.134
1747670853828227505,-0.134
1747670853835932881,-0.132
1747670853843638257,-0.132
1747670853851343633,-0.134
1747670853859049009,-0.129
1747670853866754385,-0.124
1747670853874459761,-0.124
1747670853882165137,-0.129
1747670853889870513,-0.127
1747670853897575889,-0.122
1747670853905281265,-0.122
1747670853912986641,-0.129
1747670853920692017,-0.134
1747670853928397393,-0.127
1747670853936102769,-0.124
1747670853943808145,-0.136
1747670853951513521,-0.14100000000000001
1747670853959218897,-0.132
1747670853966924273,-0.124
1747670853974629649,-0.11900000000000001
1747670853982335025,-0.107
1747670853990040401,-0.095
1747670853997745777,-0.09
1747670854005451153,-0.092
1747670854013156529,-0.107
1747670854020861905,-0.117
1747670854028567281,-0.114
1747670854036272657,-0.11900000000000001
1747670854043978033,-0.127
1747670854051683409,-0.114
1747670854059388785,-0.114
1747670854067094161,-0.14400000000000002
1747670854074799537,-0.185
1747670854082504913,-0.149
1747670854090210289,0.088
1747670854097915665,0.613
1747670854105621041,0.961
1747670854113326417,0.149
1747670854121031793,-0.961
1747670854128737169,-0.721
1747670854136442545,-0.14100000000000001
1747670854144147921,-0.232
1747670854151853297,-0.234
1747670854159558673,-0.068
1747670854167264049,-0.107
1747670854174969425,-0.149
1747670854182674801,-0.09
1747670854190380177,-0.088
1747670854198085553,-0.11
1747670854205790929,-0.09
1747670854213496305,-0.075
1747670854221201681,-0.078
1747670854228907057,-0.08
1747670854236612433,-0.085
1747670854244317809,-0.07
1747670854252023185,-0.044
1747670854259728561,-0.034
1747670854267433937,-0.022
1747670854275139313,0.004
1747670854282844689,0.031
1747670854290550065,0.056
1747670854298255441,0.083
1747670854305960817,0.1
1747670854313666193,0.105
1747670854321371569,0.112
1747670854329077014,0.11,86,818
1747670854336782390,0.066
1747670854344487766,0.014
1747670854352193142,-0.031
1747670854359898518,-0.09
1747670854367603894,-0.14100000000000001
1747670854375309270,-0.17300000000000001
1747670854383014646,-0.198
1747670854390720022,-0.215
1747670854398425398,-0.217
1747670854406130774,-0.215
1747670854413836150,-0.21
1747670854421541526,-0.20700000000000002
1747670854429246902,-0.198
1747670854436952278,-0.198
1747670854444657654,-0.20500000000000002
1747670854452363030,-0.20700000000000002
1747670854460068406,-0.198
1747670854467773782,-0.188
1747670854475479158,-0.18
1747670854483184534,-0.176
1747670854490889910,-0.168
1747670854498595286,-0.156
1747670854506300662,-0.136
1747670854514006038,-0.132
1747670854521711414,-0.136
1747670854529416790,-0.127
1747670854537122166,-0.122
1747670854544827542,-0.124
1747670854552532918,-0.127
1747670854560238294,-0.122
1747670854567943670,-0.122
1747670854575649046,-0.124
1747670854583354422,-0.124
1747670854591059798,-0.124
1747670854598765174,-0.127
1747670854606470550,-0.129
1747670854614175926,-0.127
1747670854621881302,-0.124
1747670854629586678,-0.124
1747670854637292054,-0.124
1747670854644997430,-0.122
1747670854652702806,-0.117
1747670854660408182,-0.117
1747670854668113558,-0.124
1747670854675818934,-0.124
1747670854683524310,-0.117
1747670854691229686,-0.114
1747670854698935062,-0.124
1747670854706640438,-0.129
1747670854714345814,-0.122
1747670854722051190,-0.11
1747670854729756566,-0.10200000000000001
1747670854737461942,-0.11
1747670854745167318,-0.11900000000000001
1747670854752872694,-0.122
1747670854760578070,-0.127
1747670854768283446,-0.132
1747670854775988822,-0.132
1747670854783694198,-0.11900000000000001
1747670854791399574,-0.1
1747670854799104950,-0.088
1747670854806810326,-0.083
1747670854814515702,-0.075
1747670854822221078,-0.075
1747670854829926454,-0.095
1747670854837631830,-0.114
1747670854845337206,-0.11
1747670854853042582,-0.10200000000000001
1747670854860747958,-0.11
1747670854868453334,-0.112
1747670854876158710,-0.11
1747670854883864086,-0.122
1747670854891569531,-0.156
1747670854899274907,-0.154
1747670854906980283,0.022
1747670854914685659,0.498
1747670854922391035,0.975
1747670854930096411,0.381
1747670854937801787,-0.87
1747670854945507163,-0.87
1747670854953212539,-0.195
1747670854960917915,-0.2
1747670854968623291,-0.256
1747670854976328667,-0.07
1747670854984034043,-0.078
1747670854991739419,-0.139
1747670854999444795,-0.085
1747670855007150171,-0.068
1747670855014855547,-0.095
1747670855022560923,-0.085
1747670855030266299,-0.07
1747670855037971675,-0.078
1747670855045677051,-0.078
1747670855053382427,-0.058
1747670855061087803,-0.044
1747670855068793179,-0.036000000000000004
1747670855076498555,-0.024
1747670855084203931,-0.007
1747670855091909307,0.017
1747670855099614683,0.051000000000000004
1747670855107320059,0.075
1747670855115025435,0.095
1747670855122730811,0.124
1747670855130436187,0.146
1747670855138141563,0.139
1747670855145846939,0.11900000000000001
1747670855153552315,0.095
1747670855161257691,0.053
1747670855168963067,-0.004
1747670855176668443,-0.061
1747670855184373819,-0.107
1747670855192079195,-0.149
1747670855199784571,-0.183
1747670855207489947,-0.2
1747670855215195323,-0.20500000000000002
1747670855222900699,-0.212
1747670855230606075,-0.215
1747670855238311451,-0.20700000000000002
1747670855246016827,-0.202
1747670855253722203,-0.20500000000000002
1747670855261427579,-0.20500000000000002
1747670855269132955,-0.193
1747670855276838331,-0.185
1747670855284543707,-0.18
1747670855292249083,-0.168
1747670855299954459,-0.156
1747670855307659835,-0.154
1747670855315365211,-0.146
1747670855323070587,-0.14100000000000001
1747670855330775963,-0.136
1747670855338481339,-0.134
1747670855346186715,-0.129
1747670855353892091,-0.127
1747670855361597467,-0.11900000000000001
1747670855369302843,-0.11
1747670855377008219,-0.114
1747670855384713595,-0.124
1747670855392418971,-0.11900000000000001
1747670855400124347,-0.117
1747670855407829723,-0.124
1747670855415535099,-0.127
1747670855423240475,-0.11900000000000001
1747670855430945851,-0.11900000000000001
1747670855438651227,-0.124
1747670855446356603,-0.124
1747670855454062048,-0.124,84,795
1747670855461767424,-0.124
1747670855469472800,-0.122
1747670855477178176,-0.117
1747670855484883552,-0.112
1747670855492588928,-0.114
1747670855500294304,-0.122
1747670855507999680,-0.122
1747670855515705056,-0.114
1747670855523410432,-0.11
1747670855531115808,-0.114
1747670855538821184,-0.124
1747670855546526560,-0.122
1747670855554231936,-0.107
1747670855561937312,-0.10200000000000001
1747670855569642688,-0.114
1747670855577348064,-0.124
1747670855585053440,-0.132
1747670855592758816,-0.129
1747670855600464192,-0.117
1747670855608169568,-0.097
1747670855615874944,-0.08
1747670855623580320,-0.075
1747670855631285696,-0.078
1747670855638991072,-0.078
1747670855646696448,-0.085
1747670855654401824,-0.105
1747670855662107200,-0.11900000000000001
1747670855669812576,-0.11900000000000001
1747670855677517952,-0.114
1747670855685223328,-0.11
1747670855692928704,-0.105
1747670855700634080,-0.114
1747670855708339456,-0.136
1747670855716044832,-0.146
1747670855723750208,-0.029
1747670855731455584,0.396
1747670855739160960,0.9390000000000001
1747670855746866336,0.47600000000000003
1747670855754571712,-0.853
1747670855762277088,-1.022
1747670855769982464,-0.278
1747670855777687840,-0.202
1747670855785393216,-0.293
1747670855793098592,-0.068
1747670855800803968,-0.036000000000000004
1747670855808509344,-0.127
1747670855816214720,-0.08
1747670855823920096,-0.048
1747670855831625472,-0.08
1747670855839330848,-0.066
1747670855847036224,-0.041
1747670855854741600,-0.056
1747670855862446976,-0.061
1747670855870152352,-0.046
1747670855877857728,-0.034
1747670855885563104,-0.024
1747670855893268480,-0.007
1747670855900973856,0.009000000000000001
1747670855908679232,0.029
1747670855916384608,0.051000000000000004
1747670855924089984,0.078
1747670855931795360,0.107
1747670855939500736,0.132
1747670855947206112,0.149
1747670855954911488,0.151
1747670855962616864,0.136
1747670855970322240,0.107
1747670855978027616,0.075
1747670855985732992,0.026000000000000002
1747670855993438368,-0.046
1747670856001143744,-0.114
1747670856008849120,-0.154
1747670856016554565,-0.18,83,806
1747670856024259523,-0.202
1747670856031964481,-0.217
1747670856039669439,-0.227
1747670856047374397,-0.232
1747670856055079355,-0.229
1747670856062784313,-0.22
1747670856070489271,-0.21
1747670856078194229,-0.20700000000000002
1747670856085899187,-0.2
1747670856093604145,-0.19
1747670856101309103,-0.183
1747670856109014061,-0.18
1747670856116719019,-0.171
1747670856124423977,-0.158
1747670856132128935,-0.146
1747670856139833893,-0.14400000000000002
1747670856147538851,-0.146
1747670856155243809,-0.14400000000000002
1747670856162948767,-0.134
1747670856170653725,-0.124
1747670856178358683,-0.127
1747670856186063641,-0.134
1747670856193768599,-0.136
1747670856201473557,-0.14100000000000001
1747670856209178515,-0.139
1747670856216883473,-0.134
1747670856224588431,-0.134
1747670856232293389,-0.136
1747670856239998347,-0.134
1747670856247703305,-0.136
1747670856255408263,-0.136
1747670856263113221,-0.132
1747670856270818179,-0.124
1747670856278523137,-0.127
1747670856286228095,-0.132
1747670856293933053,-0.127
1747670856301638011,-0.124
1747670856309342969,-0.132
1747670856317047927,-0.134
1747670856324752885,-0.122
1747670856332457843,-0.122
1747670856340162801,-0.11900000000000001
1747670856347867759,-0.112
1747670856355572717,-0.11900000000000001
1747670856363277675,-0.139
1747670856370982633,-0.14400000000000002
1747670856378687591,-0.14400000000000002
1747670856386392549,-0.14100000000000001
1747670856394097507,-0.117
1747670856401802465,-0.09
1747670856409507423,-0.09
1747670856417212381,-0.09
1747670856424917339,-0.083
1747670856432622297,-0.092
1747670856440327255,-0.117
1747670856448032213,-0.124
1747670856455737171,-0.11900000000000001
1747670856463442129,-0.122
1747670856471147087,-0.127
1747670856478852045,-0.127
1747670856486557003,-0.127
1747670856494261961,-0.149
1747670856501966919,-0.176
1747670856509671877,-0.11900000000000001
1747670856517376835,0.156
1747670856525081793,0.709
1747670856532786751,0.804
1747670856540491709,-0.293
1747670856548196667,-1.124
1747670856555901625,-0.5690000000000001
1747670856563606583,-0.124
1747670856571311541,-0.281
1747670856579016564,-0.178
1747670856586721940,-0.024
1747670856594427316,-0.11
1747670856602132692,-0.127
1747670856609838068,-0.061
1747670856617543444,-0.08
1747670856625248820,-0.1
1747670856632954196,-0.075
1747670856640659572,-0.068
1747670856648364948,-0.068
1747670856656070324,-0.053
1747670856663775700,-0.053
1747670856671481076,-0.053
1747670856679186452,-0.031
1747670856686891828,-0.017
1747670856694597204,-0.007
1747670856702302580,0.024
1747670856710007956,0.056
1747670856717713332,0.083
1747670856725418708,0.11
1747670856733124084,0.124
1747670856740829460,0.127
1747670856748534836,0.124
1747670856756240212,0.112
1747670856763945588,0.08
1747670856771650964,0.029
1747670856779356340,-0.031
1747670856787061716,-0.088
1747670856794767092,-0.136
1747670856802472468,-0.178
1747670856810177844,-0.20700000000000002
1747670856817883220,-0.215
1747670856825588596,-0.215
1747670856833293972,-0.22
1747670856840999348,-0.217
1747670856848704724,-0.212
1747670856856410100,-0.217
1747670856864115476,-0.212
1747670856871820852,-0.2
1747670856879526228,-0.195
1747670856887231604,-0.19
1747670856894936980,-0.183
1747670856902642356,-0.17300000000000001
1747670856910347732,-0.166
1747670856918053108,-0.161
1747670856925758484,-0.151
1747670856933463860,-0.134
1747670856941169236,-0.129
1747670856948874612,-0.132
1747670856956579988,-0.129
1747670856964285364,-0.129
1747670856971990740,-0.134
1747670856979696116,-0.129
1747670856987401492,-0.127
1747670856995106868,-0.129
1747670857002812244,-0.129
1747670857010517620,-0.129
1747670857018222996,-0.132
1747670857025928372,-0.129
1747670857033633748,-0.129
1747670857041339124,-0.134
1747670857049044500,-0.132
1747670857056749876,-0.124
1747670857064455252,-0.124
1747670857072160628,-0.127
1747670857079866004,-0.124
1747670857087571380,-0.127
1747670857095276756,-0.134
1747670857102982132,-0.132
1747670857110687508,-0.124
1747670857118392884,-0.127
1747670857126098260,-0.127
1747670857133803636,-0.122
1747670857141509081,-0.124,81,818
1747670857149214457,-0.139,,817
1747670857156919833,-0.14400000000000002
1747670857164625209,-0.132
1747670857172330585,-0.114
1747670857180035961,-0.097
1747670857187741337,-0.085
1747670857195446713,-0.092
1747670857203152089,-0.092
1747670857210857465,-0.075
1747670857218562841,-0.09
1747670857226268217,-0.122
1747670857233973593,-0.132
1747670857241678969,-0.127
1747670857249384345,-0.127
1747670857257089721,-0.127
1747670857264795097,-0.11900000000000001
1747670857272500473,-0.11900000000000001
1747670857280205849,-0.151
1747670857287911225,-0.185
1747670857295616601,-0.105
1747670857303321977,0.229
1747670857311027353,0.809
1747670857318732729,0.809
1747670857326438105,-0.357
1747670857334143481,-1.068
1747670857341848857,-0.481
1747670857349554233,-0.124
1747670857357259609,-0.271
1747670857364964985,-0.161
1747670857372670361,-0.061
1747670857380375737,-0.14400000000000002
1747670857388081113,-0.134
1747670857395786489,-0.078
1747670857403491865,-0.095
1747670857411197241,-0.10200000000000001
1747670857418902617,-0.083
1747670857426607993,-0.08
1747670857434313369,-0.083
1747670857442018745,-0.08
1747670857449724121,-0.068
1747670857457429497,-0.048
1747670857465134873,-0.034
1747670857472840249,-0.024
1747670857480545625,-0.012
1747670857488251001,0.009000000000000001
1747670857495956377,0.036000000000000004
1747670857503661753,0.07
1747670857511367129,0.1
1747670857519072505,0.114
1747670857526777881,0.117
1747670857534483257,0.11
1747670857542188633,0.092
1747670857549894009,0.061
1747670857557599385,0.014
1747670857565304761,-0.044
1747670857573010137,-0.1
1747670857580715513,-0.14400000000000002
1747670857588420889,-0.171
1747670857596126265,-0.188
1747670857603831641,-0.2
1747670857611537017,-0.212
1747670857619242393,-0.212
1747670857626947769,-0.2
1747670857634653145,-0.2
1747670857642358521,-0.20500000000000002
1747670857650063897,-0.198
1747670857657769273,-0.188
1747670857665474649,-0.178
1747670857673180025,-0.178
1747670857680885401,-0.183
1747670857688590777,-0.166
1747670857696296153,-0.151
1747670857704001598,-0.151
1747670857711706696,-0.154
1747670857719411794,-0.14100000000000001
1747670857727116892,-0.129
1747670857734821990,-0.127
1747670857742527088,-0.129
1747670857750232186,-0.127
1747670857757937284,-0.129
1747670857765642382,-0.129
1747670857773347480,-0.132
1747670857781052578,-0.134
1747670857788757676,-0.134
1747670857796462774,-0.136
1747670857804167872,-0.136
1747670857811872970,-0.132
1747670857819578068,-0.132
1747670857827283166,-0.132
1747670857834988264,-0.139
1747670857842693362,-0.14400000000000002
1747670857850398460,-0.136
1747670857858103558,-0.127
1747670857865808656,-0.132
1747670857873513754,-0.134
1747670857881218852,-0.134
1747670857888923950,-0.129
1747670857896629048,-0.129
1747670857904334146,-0.136
1747670857912039244,-0.14100000000000001
1747670857919744342,-0.149
1747670857927449440,-0.14100000000000001
1747670857935154538,-0.122
1747670857942859636,-0.107
1747670857950564734,-0.1
1747670857958269832,-0.1
1747670857965974930,-0.095
1747670857973680028,-0.088
1747670857981385126,-0.092
1747670857989090224,-0.11
1747670857996795322,-0.127
1747670858004500420,-0.136
1747670858012205518,-0.132
1747670858019910616,-0.127
1747670858027615714,-0.132
1747670858035320812,-0.134
1747670858043025910,-0.136
1747670858050731008,-0.161
1747670858058436106,-0.158
1747670858066141204,0.0
1747670858073846302,0.449
1747670858081551400,0.904
1747670858089256498,0.31
1747670858096961596,-0.931
1747670858104666694,-0.912
1747670858112371792,-0.212
1747670858120076890,-0.21
1747670858127781988,-0.269
1747670858135487086,-0.073
1747670858143192184,-0.083
1747670858150897282,-0.151
1747670858158602380,-0.09
1747670858166307478,-0.061
1747670858174012576,-0.09
1747670858181717674,-0.09
1747670858189422772,-0.078
1747670858197127870,-0.08
1747670858204832968,-0.066
1747670858212538066,-0.046
1747670858220243164,-0.046
1747670858227948262,-0.041
1747670858235653360,-0.019
1747670858243358458,-0.004
1747670858251063556,0.012
1747670858258768654,0.039
1747670858266473767,0.075,80,789
1747670858274179004,0.11
1747670858281884241,0.132
1747670858289589478,0.14100000000000001
1747670858297294715,0.14100000000000001
1747670858304999952,0.129
1747670858312705189,0.1
1747670858320410426,0.058
1747670858328115663,0.007
1747670858335820900,-0.058
1747670858343526137,-0.122
1747670858351231374,-0.168
1747670858358936611,-0.2
1747670858366641848,-0.215
1747670858374347085,-0.22
1747670858382052322,-0.224
1747670858389757559,-0.224
1747670858397462796,-0.224
1747670858405168033,-0.22
1747670858412873270,-0.21
1747670858420578507,-0.21
1747670858428283744,-0.21
1747670858435988981,-0.2
1747670858443694218,-0.19
1747670858451399455,-0.183
1747670858459104692,-0.17300000000000001
1747670858466809929,-0.161
1747670858474515166,-0.151
1747670858482220403,-0.151
1747670858489925640,-0.146
1747670858497630877,-0.139
1747670858505336114,-0.136
1747670858513041351,-0.134
1747670858520746588,-0.132
1747670858528451825,-0.132
1747670858536157062,-0.134
1747670858543862299,-0.132
1747670858551567536,-0.127
1747670858559272773,-0.136
1747670858566978010,-0.14100000000000001
1747670858574683247,-0.134
1747670858582388484,-0.132
1747670858590093721,-0.134
1747670858597798958,-0.136
1747670858605504195,-0.139
1747670858613209432,-0.136
1747670858620914669,-0.132
1747670858628619906,-0.129
1747670858636325143,-0.134
1747670858644030380,-0.136
1747670858651735617,-0.14400000000000002
1747670858659440854,-0.154
1747670858667146091,-0.14100000000000001
1747670858674851328,-0.114
1747670858682556565,-0.09
1747670858690261802,-0.088
1747670858697967039,-0.09
1747670858705672276,-0.088
1747670858713377513,-0.097
1747670858721082750,-0.114
1747670858728787987,-0.127
1747670858736493224,-0.132
1747670858744198461,-0.132
1747670858751903698,-0.132
1747670858759608935,-0.129
1747670858767314172,-0.127
1747670858775019409,-0.14400000000000002
1747670858782724646,-0.178
1747670858790429883,-0.168
1747670858798135120,0.004
1747670858805840357,0.47400000000000003
1747670858813545594,0.919
1747670858821250831,0.227
1747670858828956114,-1.049
1747670858836661490,-0.9510000000000001
1747670858844366866,-0.22
1747670858852072242,-0.251
1747670858859777618,-0.28600000000000003
1747670858867482994,-0.044
1747670858875188370,-0.058
1747670858882893746,-0.146
1747670858890599122,-0.08
1747670858898304498,-0.056
1747670858906009874,-0.09
1747670858913715250,-0.078
1747670858921420626,-0.058
1747670858929126002,-0.058
1747670858936831378,-0.051000000000000004
1747670858944536754,-0.041
1747670858952242130,-0.034
1747670858959947506,-0.024
1747670858967652882,-0.009000000000000001
1747670858975358258,0.007
1747670858983063634,0.031
1747670858990769010,0.056
1747670858998474386,0.08
1747670859006179762,0.11
1747670859013885138,0.136
1747670859021590514,0.146
1747670859029295890,0.146
1747670859037001266,0.129
1747670859044706642,0.1
1747670859052412018,0.056
1747670859060117394,-0.002
1747670859067822770,-0.07
1747670859075528146,-0.129
1747670859083233522,-0.168
1747670859090938898,-0.198
1747670859098644274,-0.215
1747670859106349650,-0.222
1747670859114055026,-0.229
1747670859121760402,-0.232
1747670859129465778,-0.222
1747670859137171154,-0.22
1747670859144876530,-0.217
1747670859152581906,-0.20500000000000002
1747670859160287282,-0.198
1747670859167992658,-0.198
1747670859175698034,-0.193
1747670859183403410,-0.178
1747670859191108786,-0.163
1747670859198814162,-0.151
1747670859206519538,-0.14100000000000001
1747670859214224914,-0.139
1747670859221930290,-0.134
1747670859229635666,-0.129
1747670859237341042,-0.127
1747670859245046418,-0.127
1747670859252751794,-0.124
1747670859260457170,-0.11900000000000001
1747670859268162546,-0.117
1747670859275867922,-0.117
1747670859283573298,-0.117
1747670859291278674,-0.124
1747670859298984050,-0.129
1747670859306689426,-0.122
1747670859314394802,-0.117
1747670859322100178,-0.122
1747670859329805554,-0.122
1747670859337510930,-0.124
1747670859345216306,-0.129
1747670859352921682,-0.127
1747670859360627058,-0.124
1747670859368332434,-0.124
1747670859376037810,-0.124
1747670859383743186,-0.124
1747670859391448631,-0.129,80,785
1747670859399154007,-0.14100000000000001
1747670859406859383,-0.139
1747670859414564759,-0.124
1747670859422270135,-0.107
1747670859429975511,-0.095
1747670859437680887,-0.09
1747670859445386263,-0.088
1747670859453091639,-0.083
1747670859460797015,-0.09
1747670859468502391,-0.112
1747670859476207767,-0.127
1747670859483913143,-0.129
1747670859491618519,-0.124
1747670859499323895,-0.127
1747670859507029271,-0.132
1747670859514734647,-0.132
1747670859522440023,-0.136
1747670859530145399,-0.17300000000000001
1747670859537850775,-0.176
1747670859545556151,-0.002
1747670859553261527,0.454
1747670859560966903,0.917
1747670859568672279,0.34400000000000003
1747670859576377655,-0.892
1747670859584083031,-0.907
1747670859591788407,-0.215
1747670859599493783,-0.2
1747670859607199159,-0.266
1747670859614904535,-0.08
1747670859622609911,-0.078
1747670859630315287,-0.14100000000000001
1747670859638020663,-0.09
1747670859645726039,-0.07
1747670859653431415,-0.1
1747670859661136791,-0.085
1747670859668842167,-0.066
1747670859676547543,-0.078
1747670859684252919,-0.078
1747670859691958295,-0.061
1747670859699663671,-0.056
1747670859707369047,-0.048
1747670859715074423,-0.029
1747670859722779799,-0.012
1747670859730485175,0.002
1747670859738190551,0.026000000000000002
1747670859745895927,0.053
1747670859753601303,0.083
1747670859761306679,0.105
1747670859769012055,0.114
1747670859776717431,0.114
1747670859784422807,0.107
1747670859792128183,0.083
1747670859799833559,0.044
1747670859807538935,-0.017
1747670859815244311,-0.08
1747670859822949687,-0.127
1747670859830655063,-0.158
1747670859838360439,-0.188
1747670859846065815,-0.20500000000000002
1747670859853771191,-0.215
1747670859861476567,-0.217
1747670859869181943,-0.215
1747670859876887319,-0.212
1747670859884592695,-0.21
1747670859892298071,-0.20500000000000002
1747670859900003447,-0.202
1747670859907708823,-0.2
1747670859915414199,-0.195
1747670859923119575,-0.183
1747670859930824951,-0.17300000000000001
1747670859938530327,-0.166
1747670859946235703,-0.161
1747670859953941148,-0.154
1747670859961646524,-0.146
1747670859969351900,-0.14100000000000001
1747670859977057276,-0.139
1747670859984762652,-0.134
1747670859992468028,-0.132
1747670860000173404,-0.129
1747670860007878780,-0.129
1747670860015584156,-0.132
1747670860023289532,-0.129
1747670860030994908,-0.129
1747670860038700284,-0.136
1747670860046405660,-0.136
1747670860054111036,-0.134
1747670860061816412,-0.136
1747670860069521788,-0.136
1747670860077227164,-0.129
1747670860084932540,-0.127
1747670860092637916,-0.136
1747670860100343292,-0.14100000000000001
1747670860108048668,-0.134
1747670860115754044,-0.129
1747670860123459420,-0.132
1747670860131164796,-0.129
1747670860138870172,-0.127
1747670860146575548,-0.127
1747670860154280924,-0.124
1747670860161986300,-0.124
1747670860169691676,-0.127
1747670860177397052,-0.14400000000000002
1747670860185102428,-0.154
1747670860192807804,-0.14100000000000001
1747670860200513180,-0.122
1747670860208218556,-0.107
1747670860215923932,-0.092
1747670860223629308,-0.083
1747670860231334684,-0.09
1747670860239040060,-0.095
1747670860246745436,-0.095
1747670860254450812,-0.11
1747670860262156188,-0.122
1747670860269861564,-0.124
1747670860277566940,-0.132
1747670860285272316,-0.139
1747670860292977692,-0.129
1747670860300683068,-0.124
1747670860308388444,-0.136
1747670860316093820,-0.171
1747670860323799196,-0.168
1747670860331504572,-0.012
1747670860339209948,0.42
1747670860346915324,0.924
1747670860354620700,0.462
1747670860362326076,-0.792
1747670860370031452,-0.929
1747670860377736828,-0.244
1747670860385442204,-0.18
1747670860393147580,-0.269
1747670860400852956,-0.10200000000000001
1747670860408558332,-0.088
1747670860416263708,-0.151
1747670860423969084,-0.105
1747670860431674460,-0.083
1747670860439379836,-0.11
1747670860447085212,-0.097
1747670860454790588,-0.075
1747670860462495964,-0.08
1747670860470201340,-0.083
1747670860477906716,-0.068
1747670860485612092,-0.058
1747670860493317468,-0.048
1747670860501022844,-0.031
1747670860508728220,-0.014
1747670860516433665,-0.002,80,768
1747670860524138832,0.017
1747670860531843999,0.048
1747670860539549166,0.073
1747670860547254333,0.092
1747670860554959500,0.107
1747670860562664667,0.112
1747670860570369834,0.10200000000000001
1747670860578075001,0.078
1747670860585780168,0.041
1747670860593485335,-0.007
1747670860601190502,-0.061
1747670860608895669,-0.112
1747670860616600836,-0.154
1747670860624306003,-0.183
1747670860632011170,-0.2
1747670860639716337,-0.21
1747670860647421504,-0.21
1747670860655126671,-0.20700000000000002
1747670860662831838,-0.202
1747670860670537005,-0.2
1747670860678242172,-0.202
1747670860685947339,-0.195
1747670860693652506,-0.188
1747670860701357673,-0.183
1747670860709062840,-0.17300000000000001
1747670860716768007,-0.166
1747670860724473174,-0.161
1747670860732178341,-0.154
1747670860739883508,-0.146
1747670860747588675,-0.149
1747670860755293842,-0.14400000000000002
1747670860762999009,-0.132
1747670860770704176,-0.129
1747670860778409343,-0.132
1747670860786114510,-0.124
1747670860793819677,-0.122
1747670860801524844,-0.124
1747670860809230011,-0.122
1747670860816935178,-0.122
1747670860824640345,-0.127
1747670860832345512,-0.132
1747670860840050679,-0.136
1747670860847755846,-0.134
1747670860855461013,-0.122
1747670860863166180,-0.11900000000000001
1747670860870871347,-0.129
1747670860878576514,-0.129
1747670860886281681,-0.124
1747670860893986848,-0.127
1747670860901692015,-0.132
1747670860909397182,-0.129
1747670860917102349,-0.124
1747670860924807516,-0.11900000000000001
1747670860932512683,-0.122
1747670860940217850,-0.124
1747670860947923017,-0.124
1747670860955628184,-0.122
1747670860963333351,-0.117
1747670860971038518,-0.117
1747670860978743685,-0.122
1747670860986448852,-0.127
1747670860994154019,-0.122
1747670861001859186,-0.11900000000000001
1747670861009564353,-0.122
1747670861017269520,-0.134
1747670861024974687,-0.14100000000000001
1747670861032679854,-0.134
1747670861040385021,-0.117
1747670861048090188,-0.092
1747670861055795355,-0.08
1747670861063500522,-0.085
1747670861071205689,-0.083
1747670861078910921,-0.083,79,731
1747670861086616088,-0.10200000000000001,,748
1747670861094321255,-0.11900000000000001
1747670861102026422,-0.122
1747670861109731589,-0.11900000000000001
1747670861117436756,-0.124
1747670861125141923,-0.127
1747670861132847090,-0.11900000000000001
1747670861140552257,-0.122
1747670861148257424,-0.14400000000000002
1747670861155962591,-0.17300000000000001
1747670861163667758,-0.107
1747670861171372925,0.202
1747670861179078092,0.772
1747670861186783259,0.8240000000000001
1747670861194488426,-0.313
1747670861202193593,-1.085
1747670861209898760,-0.518
1747670861217603927,-0.134
1747670861225309094,-0.291
1747670861233014261,-0.17300000000000001
1747670861240719428,-0.039
1747670861248424595,-0.122
1747670861256129762,-0.124
1747670861263834929,-0.063
1747670861271540096,-0.083
1747670861279245263,-0.092
1747670861286950430,-0.068
1747670861294655597,-0.068
1747670861302360764,-0.075
1747670861310065931,-0.056
1747670861317771098,-0.044
1747670861325476265,-0.041
1747670861333181432,-0.034
1747670861340886599,-0.017
1747670861348591766,0.004
1747670861356296933,0.029
1747670861364002100,0.051000000000000004
1747670861371707267,0.078
1747670861379412434,0.107
1747670861387117601,0.127
1747670861394822768,0.139
1747670861402527935,0.136
1747670861410233102,0.11900000000000001
1747670861417938269,0.095
1747670861425643436,0.051000000000000004
1747670861433348603,-0.014
1747670861441053770,-0.073
1747670861448758937,-0.117
1747670861456464104,-0.161
1747670861464169271,-0.19
1747670861471874438,-0.202
1747670861479579605,-0.21
1747670861487284772,-0.217
1747670861494989939,-0.217
1747670861502695106,-0.212
1747670861510400273,-0.20700000000000002
1747670861518105440,-0.20700000000000002
1747670861525810607,-0.20500000000000002
1747670861533515774,-0.195
1747670861541220941,-0.185
1747670861548926108,-0.178
1747670861556631275,-0.166
1747670861564336442,-0.154
1747670861572041609,-0.151
1747670861579746776,-0.149
1747670861587451943,-0.134
1747670861595157110,-0.129
1747670861602862277,-0.134
1747670861610567444,-0.132
1747670861618272611,-0.129
1747670861625977778,-0.127
1747670861633682945,-0.124
1747670861641388181,-0.122
1747670861649093557,-0.124
1747670861656798933,-0.129
1747670861664504309,-0.132
1747670861672209685,-0.132
1747670861679915061,-0.136
1747670861687620437,-0.134
1747670861695325813,-0.132
1747670861703031189,-0.127
1747670861710736565,-0.124
1747670861718441941,-0.127
1747670861726147317,-0.129
1747670861733852693,-0.129
1747670861741558069,-0.127
1747670861749263445,-0.122
1747670861756968821,-0.122
1747670861764674197,-0.11900000000000001
1747670861772379573,-0.122
1747670861780084949,-0.129
1747670861787790325,-0.127
1747670861795495701,-0.11900000000000001
1747670861803201077,-0.117
1747670861810906453,-0.117
1747670861818611829,-0.117
1747670861826317205,-0.117
1747670861834022581,-0.122
1747670861841727957,-0.127
1747670861849433333,-0.132
1747670861857138709,-0.129
1747670861864844085,-0.117
1747670861872549461,-0.095
1747670861880254837,-0.075
1747670861887960213,-0.073
1747670861895665589,-0.083
1747670861903370965,-0.088
1747670861911076341,-0.097
1747670861918781717,-0.11
1747670861926487093,-0.112
1747670861934192469,-0.11900000000000001
1747670861941897845,-0.124
1747670861949603221,-0.117
1747670861957308597,-0.114
1747670861965013973,-0.122
1747670861972719349,-0.134
1747670861980424725,-0.161
1747670861988130101,-0.14100000000000001
1747670861995835477,0.09
1747670862003540853,0.655
1747670862011246229,0.899
1747670862018951605,-0.117
1747670862026656981,-1.1460000000000001
1747670862034362357,-0.6960000000000001
1747670862042067733,-0.139
1747670862049773109,-0.28800000000000003
1747670862057478485,-0.222
1747670862065183861,-0.019
1747670862072889237,-0.092
1747670862080594613,-0.134
1747670862088299989,-0.061
1747670862096005365,-0.068
1747670862103710741,-0.097
1747670862111416117,-0.07
1747670862119121493,-0.058
1747670862126826869,-0.066
1747670862134532245,-0.058
1747670862142237621,-0.041
1747670862149942997,-0.034
1747670862157648373,-0.024
1747670862165353749,-0.009000000000000001
1747670862173059125,0.007
1747670862180764501,0.029
1747670862188469877,0.056
1747670862196175253,0.08
1747670862203880698,0.105,80,786
1747670862211586074,0.124
1747670862219291450,0.129
1747670862226996826,0.132
1747670862234702202,0.11900000000000001
1747670862242407578,0.083
1747670862250112954,0.041
1747670862257818330,-0.009000000000000001
1747670862265523706,-0.07
1747670862273229082,-0.127
1747670862280934458,-0.168
1747670862288639834,-0.2
1747670862296345210,-0.217
1747670862304050586,-0.22
1747670862311755962,-0.222
1747670862319461338,-0.224
1747670862327166714,-0.222
1747670862334872090,-0.215
1747670862342577466,-0.20700000000000002
1747670862350282842,-0.198
1747670862357988218,-0.188
1747670862365693594,-0.183
1747670862373398970,-0.178
1747670862381104346,-0.168
1747670862388809722,-0.154
1747670862396515098,-0.149
1747670862404220474,-0.149
1747670862411925850,-0.149
1747670862419631226,-0.14100000000000001
1747670862427336602,-0.134
1747670862435041978,-0.132
1747670862442747354,-0.129
1747670862450452730,-0.129
1747670862458158106,-0.134
1747670862465863482,-0.139
1747670862473568858,-0.14100000000000001
1747670862481274234,-0.139
1747670862488979610,-0.139
1747670862496684986,-0.14400000000000002
1747670862504390362,-0.146
1747670862512095738,-0.146
1747670862519801114,-0.14400000000000002
1747670862527506490,-0.136
1747670862535211866,-0.136
1747670862542917242,-0.14100000000000001
1747670862550622618,-0.14100000000000001
1747670862558327994,-0.14100000000000001
1747670862566033370,-0.139
1747670862573738746,-0.14100000000000001
1747670862581444122,-0.139
1747670862589149498,-0.132
1747670862596854874,-0.127
1747670862604560250,-0.136
1747670862612265626,-0.14100000000000001
1747670862619971002,-0.134
1747670862627676378,-0.132
1747670862635381754,-0.139
1747670862643087130,-0.14400000000000002
1747670862650792506,-0.14400000000000002
1747670862658497882,-0.136
1747670862666203258,-0.122
1747670862673908634,-0.1
1747670862681614010,-0.085
1747670862689319386,-0.088
1747670862697024762,-0.1
1747670862704730138,-0.107
1747670862712435514,-0.114
1747670862720140890,-0.129
1747670862727846266,-0.136
1747670862735551642,-0.136
1747670862743257018,-0.14100000000000001
1747670862750962394,-0.14100000000000001
1747670862758667770,-0.136
1747670862766373215,-0.136
1747670862774078522,-0.161
1747670862781783829,-0.202
1747670862789489136,-0.151
1747670862797194443,0.14100000000000001
1747670862804899750,0.704
1747670862812605057,0.8160000000000001
1747670862820310364,-0.249
1747670862828015671,-1.093
1747670862835720978,-0.584
1747670862843426285,-0.151
1747670862851131592,-0.3
1747670862858836899,-0.212
1747670862866542206,-0.068
1747670862874247513,-0.14400000000000002
1747670862881952820,-0.156
1747670862889658127,-0.095
1747670862897363434,-0.11
1747670862905068741,-0.127
1747670862912774048,-0.105
1747670862920479355,-0.095
1747670862928184662,-0.1
1747670862935889969,-0.092
1747670862943595276,-0.078
1747670862951300583,-0.066
1747670862959005890,-0.058
1747670862966711197,-0.046
1747670862974416504,-0.029
1747670862982121811,-0.007
1747670862989827118,0.022
1747670862997532425,0.048
1747670863005237732,0.073
1747670863012943039,0.092
1747670863020648346,0.10200000000000001
1747670863028353653,0.097
1747670863036058960,0.075
1747670863043764267,0.053
1747670863051469574,0.022
1747670863059174881,-0.039
1747670863066880188,-0.10200000000000001
1747670863074585495,-0.149
1747670863082290802,-0.183
1747670863089996109,-0.20500000000000002
1747670863097701416,-0.217
1747670863105406723,-0.224
1747670863113112030,-0.227
1747670863120817337,-0.232
1747670863128522644,-0.229
1747670863136227951,-0.222
1747670863143933258,-0.217
1747670863151638565,-0.215
1747670863159343872,-0.21
1747670863167049179,-0.20500000000000002
1747670863174754486,-0.195
1747670863182459793,-0.178
1747670863190165100,-0.168
1747670863197870407,-0.166
1747670863205575714,-0.158
1747670863213281021,-0.151
1747670863220986328,-0.146
1747670863228691635,-0.134
1747670863236396942,-0.127
1747670863244102249,-0.124
1747670863251807556,-0.127
1747670863259512863,-0.124
1747670863267218170,-0.122
1747670863274923477,-0.124
1747670863282628784,-0.132
1747670863290334091,-0.132
1747670863298039398,-0.127
1747670863305744705,-0.129
1747670863313450012,-0.132
1747670863321155319,-0.129
1747670863328860645,-0.124,79,835
1747670863336565673,-0.127
1747670863344270701,-0.134
1747670863351975729,-0.129
1747670863359680757,-0.124
1747670863367385785,-0.127
1747670863375090813,-0.132
1747670863382795841,-0.127
1747670863390500869,-0.122
1747670863398205897,-0.127
1747670863405910925,-0.132
1747670863413615953,-0.129
1747670863421320981,-0.122
1747670863429026009,-0.117
1747670863436731037,-0.124
1747670863444436065,-0.132
1747670863452141093,-0.139
1747670863459846121,-0.14400000000000002
1747670863467551149,-0.132
1747670863475256177,-0.112
1747670863482961205,-0.095
1747670863490666233,-0.088
1747670863498371261,-0.088
1747670863506076289,-0.09
1747670863513781317,-0.095
1747670863521486345,-0.107
1747670863529191373,-0.122
1747670863536896401,-0.134
1747670863544601429,-0.134
1747670863552306457,-0.132
1747670863560011485,-0.134
1747670863567716513,-0.134
1747670863575421541,-0.134
1747670863583126569,-0.154
1747670863590831597,-0.185
1747670863598536625,-0.114
1747670863606241653,0.198
1747670863613946681,0.77
1747670863621651709,0.846
1747670863629356737,-0.264
1747670863637061765,-1.056
1747670863644766793,-0.518
1747670863652471821,-0.127
1747670863660176849,-0.28300000000000003
1747670863667881877,-0.193
1747670863675586905,-0.07
1747670863683291933,-0.14400000000000002
1747670863690996961,-0.149
1747670863698701989,-0.092
1747670863706407017,-0.10200000000000001
1747670863714112045,-0.112
1747670863721817073,-0.092
1747670863729522101,-0.095
1747670863737227129,-0.10200000000000001
1747670863744932157,-0.09
1747670863752637185,-0.078
1747670863760342213,-0.073
1747670863768047241,-0.058
1747670863775752269,-0.039
1747670863783457297,-0.024
1747670863791162325,-0.009000000000000001
1747670863798867353,0.014
1747670863806572381,0.048
1747670863814277409,0.075
1747670863821982437,0.092
1747670863829687465,0.097
1747670863837392493,0.095
1747670863845097521,0.085
1747670863852802549,0.061
1747670863860507577,0.017
1747670863868212605,-0.039
1747670863875917633,-0.1
1747670863883622661,-0.146
1747670863891327731,-0.176
1747670863899033107,-0.20500000000000002
1747670863906738483,-0.22
1747670863914443859,-0.222
1747670863922149235,-0.224
1747670863929854611,-0.224
1747670863937559987,-0.215
1747670863945265363,-0.21
1747670863952970739,-0.212
1747670863960676115,-0.21
1747670863968381491,-0.202
1747670863976086867,-0.195
1747670863983792243,-0.183
1747670863991497619,-0.171
1747670863999202995,-0.171
1747670864006908371,-0.171
1747670864014613747,-0.161
1747670864022319123,-0.154
1747670864030024499,-0.151
1747670864037729875,-0.146
1747670864045435251,-0.14400000000000002
1747670864053140627,-0.139
1747670864060846003,-0.134
1747670864068551379,-0.132
1747670864076256755,-0.134
1747670864083962131,-0.136
1747670864091667507,-0.134
1747670864099372883,-0.127
1747670864107078259,-0.132
1747670864114783635,-0.14100000000000001
1747670864122489011,-0.139
1747670864130194387,-0.134
1747670864137899763,-0.139
1747670864145605139,-0.139
1747670864153310515,-0.132
1747670864161015891,-0.127
1747670864168721267,-0.127
1747670864176426643,-0.134
1747670864184132019,-0.132
1747670864191837395,-0.124
1747670864199542771,-0.124
1747670864207248147,-0.127
1747670864214953523,-0.122
1747670864222658899,-0.124
1747670864230364275,-0.127
1747670864238069651,-0.127
1747670864245775027,-0.124
1747670864253480403,-0.127
1747670864261185779,-0.127
1747670864268891155,-0.129
1747670864276596531,-0.139
1747670864284301907,-0.146
1747670864292007283,-0.136
1747670864299712659,-0.11900000000000001
1747670864307418035,-0.097
1747670864315123411,-0.09
1747670864322828787,-0.095
1747670864330534163,-0.088
1747670864338239539,-0.083
1747670864345944915,-0.105
1747670864353650291,-0.129
1747670864361355667,-0.127
1747670864369061043,-0.122
1747670864376766419,-0.127
1747670864384471795,-0.127
1747670864392177171,-0.124
1747670864399882547,-0.134
1747670864407587923,-0.161
1747670864415293299,-0.176
1747670864422998675,-0.058
1747670864430704051,0.322
1747670864438409427,0.885
1747670864446114803,0.66
1747670864453820248,-0.596,79,826
1747670864461525624,-1.027
1747670864469231000,-0.34900000000000003
1747670864476936376,-0.149
1747670864484641752,-0.28300000000000003
1747670864492347128,-0.127
1747670864500052504,-0.066
1747670864507757880,-0.14100000000000001
1747670864515463256,-0.11
1747670864523168632,-0.073
1747670864530874008,-0.097
1747670864538579384,-0.09
1747670864546284760,-0.07
1747670864553990136,-0.073
1747670864561695512,-0.068
1747670864569400888,-0.051000000000000004
1747670864577106264,-0.044
1747670864584811640,-0.036000000000000004
1747670864592517016,-0.022
1747670864600222392,-0.009000000000000001
1747670864607927768,0.007
1747670864615633144,0.034
1747670864623338520,0.056
1747670864631043896,0.083
1747670864638749272,0.117
1747670864646454648,0.136
1747670864654160024,0.134
1747670864661865400,0.127
1747670864669570776,0.114
1747670864677276152,0.083
1747670864684981528,0.036000000000000004
1747670864692686904,-0.012
1747670864700392280,-0.075
1747670864708097656,-0.139
1747670864715803032,-0.176
1747670864723508408,-0.188
1747670864731213784,-0.2
1747670864738919160,-0.21
1747670864746624536,-0.212
1747670864754329912,-0.20700000000000002
1747670864762035288,-0.202
1747670864769740664,-0.202
1747670864777446040,-0.195
1747670864785151416,-0.185
1747670864792856792,-0.183
1747670864800562168,-0.183
1747670864808267544,-0.176
1747670864815972920,-0.168
1747670864823678296,-0.163
1747670864831383672,-0.151
1747670864839089048,-0.14400000000000002
1747670864846794424,-0.139
1747670864854499800,-0.136
1747670864862205176,-0.132
1747670864869910552,-0.129
1747670864877615928,-0.132
1747670864885321304,-0.129
1747670864893026680,-0.129
1747670864900732056,-0.136
1747670864908437432,-0.134
1747670864916142808,-0.127
1747670864923848184,-0.132
1747670864931553560,-0.139
1747670864939258936,-0.129
1747670864946964312,-0.127
1747670864954669688,-0.136
1747670864962375064,-0.134
1747670864970080440,-0.124
1747670864977785816,-0.122
1747670864985491192,-0.124
1747670864993196568,-0.127
1747670865000901944,-0.129
1747670865008607320,-0.122
1747670865016312765,-0.11900000000000001
1747670865024017723,-0.11900000000000001
1747670865031722681,-0.117
1747670865039427639,-0.124
1747670865047132597,-0.134
1747670865054837555,-0.134
1747670865062542513,-0.134
1747670865070247471,-0.129
1747670865077952429,-0.107
1747670865085657387,-0.083
1747670865093362345,-0.07
1747670865101067303,-0.075
1747670865108772261,-0.08
1747670865116477219,-0.08
1747670865124182177,-0.09
1747670865131887135,-0.107
1747670865139592093,-0.11900000000000001
1747670865147297051,-0.11900000000000001
1747670865155002009,-0.114
1747670865162706967,-0.112
1747670865170411925,-0.112
1747670865178116883,-0.112
1747670865185821841,-0.122
1747670865193526799,-0.149
1747670865201231757,-0.107
1747670865208936715,0.163
1747670865216641673,0.731
1747670865224346631,0.833
1747670865232051589,-0.313
1747670865239756547,-1.195
1747670865247461505,-0.604
1747670865255166463,-0.122
1747670865262871421,-0.28800000000000003
1747670865270576379,-0.171
1747670865278281337,0.002
1747670865285986295,-0.088
1747670865293691253,-0.10200000000000001
1747670865301396211,-0.029
1747670865309101169,-0.044
1747670865316806127,-0.063
1747670865324511085,-0.044
1747670865332216043,-0.041
1747670865339921001,-0.041
1747670865347625959,-0.022
1747670865355330917,-0.017
1747670865363035875,-0.017
1747670865370740833,0.0
1747670865378445791,0.022
1747670865386150749,0.036000000000000004
1747670865393855707,0.058
1747670865401560665,0.088
1747670865409265623,0.11900000000000001
1747670865416970581,0.151
1747670865424675539,0.176
1747670865432380497,0.188
1747670865440085455,0.18
1747670865447790413,0.158
1747670865455495371,0.134
1747670865463200329,0.09
1747670865470905287,0.014
1747670865478610245,-0.048
1747670865486315203,-0.097
1747670865494020161,-0.154
1747670865501725119,-0.188
1747670865509430077,-0.198
1747670865517135035,-0.21
1747670865524839993,-0.217
1747670865532544951,-0.212
1747670865540249909,-0.212
1747670865547954867,-0.212
1747670865555659825,-0.20500000000000002
1747670865563364783,-0.195
1747670865571069741,-0.188
1747670865578774764,-0.183,78,801
1747670865586480140,-0.17300000000000001,,809
1747670865594185516,-0.161
1747670865601890892,-0.151
1747670865609596268,-0.146
1747670865617301644,-0.146
1747670865625007020,-0.149
1747670865632712396,-0.139
1747670865640417772,-0.134
1747670865648123148,-0.134
1747670865655828524,-0.132
1747670865663533900,-0.129
1747670865671239276,-0.136
1747670865678944652,-0.139
1747670865686650028,-0.132
1747670865694355404,-0.132
1747670865702060780,-0.14100000000000001
1747670865709766156,-0.14100000000000001
1747670865717471532,-0.136
1747670865725176908,-0.134
1747670865732882284,-0.136
1747670865740587660,-0.136
1747670865748293036,-0.134
1747670865755998412,-0.134
1747670865763703788,-0.139
1747670865771409164,-0.151
1747670865779114540,-0.154
1747670865786819916,-0.139
1747670865794525292,-0.122
1747670865802230668,-0.112
1747670865809936044,-0.097
1747670865817641420,-0.09
1747670865825346796,-0.092
1747670865833052172,-0.095
1747670865840757548,-0.1
1747670865848462924,-0.114
1747670865856168300,-0.11900000000000001
1747670865863873676,-0.122
1747670865871579052,-0.127
1747670865879284428,-0.134
1747670865886989804,-0.134
1747670865894695180,-0.134
1747670865902400556,-0.139
1747670865910105932,-0.163
1747670865917811308,-0.161
1747670865925516684,0.009000000000000001
1747670865933222060,0.489
1747670865940927436,0.921
1747670865948632812,0.202
1747670865956338188,-1.063
1747670865964043564,-0.9390000000000001
1747670865971748940,-0.22
1747670865979454316,-0.256
1747670865987159692,-0.278
1747670865994865068,-0.046
1747670866002570444,-0.07
1747670866010275820,-0.149
1747670866017981196,-0.078
1747670866025686572,-0.061
1747670866033391948,-0.092
1747670866041097324,-0.075
1747670866048802700,-0.066
1747670866056508076,-0.073
1747670866064213452,-0.058
1747670866071918828,-0.046
1747670866079624204,-0.044
1747670866087329580,-0.031
1747670866095034956,-0.014
1747670866102740332,0.004
1747670866110445708,0.024
1747670866118151084,0.048
1747670866125856460,0.08
1747670866133561836,0.107
1747670866141267281,0.124,77,822
1747670866148972657,0.14100000000000001
1747670866156678033,0.139
1747670866164383409,0.11900000000000001
1747670866172088785,0.095
1747670866179794161,0.058
1747670866187499537,-0.007
1747670866195204913,-0.075
1747670866202910289,-0.132
1747670866210615665,-0.17300000000000001
1747670866218321041,-0.20500000000000002
1747670866226026417,-0.224
1747670866233731793,-0.234
1747670866241437169,-0.23700000000000002
1747670866249142545,-0.232
1747670866256847921,-0.229
1747670866264553297,-0.229
1747670866272258673,-0.229
1747670866279964049,-0.224
1747670866287669425,-0.217
1747670866295374801,-0.215
1747670866303080177,-0.20700000000000002
1747670866310785553,-0.188
1747670866318490929,-0.176
1747670866326196305,-0.171
1747670866333901681,-0.163
1747670866341607057,-0.154
1747670866349312433,-0.146
1747670866357017809,-0.139
1747670866364723185,-0.129
1747670866372428561,-0.129
1747670866380133937,-0.136
1747670866387839313,-0.136
1747670866395544689,-0.136
1747670866403250065,-0.136
1747670866410955441,-0.134
1747670866418660817,-0.136
1747670866426366193,-0.14400000000000002
1747670866434071569,-0.139
1747670866441776945,-0.134
1747670866449482321,-0.134
1747670866457187697,-0.136
1747670866464893073,-0.136
1747670866472598449,-0.136
1747670866480303825,-0.134
1747670866488009201,-0.132
1747670866495714577,-0.134
1747670866503419953,-0.149
1747670866511125329,-0.156
1747670866518830705,-0.14400000000000002
1747670866526536081,-0.122
1747670866534241457,-0.107
1747670866541946833,-0.097
1747670866549652209,-0.097
1747670866557357585,-0.1
1747670866565062961,-0.097
1747670866572768337,-0.107
1747670866580473713,-0.124
1747670866588179089,-0.129
1747670866595884465,-0.132
1747670866603589841,-0.136
1747670866611295217,-0.136
1747670866619000593,-0.136
1747670866626705969,-0.139
1747670866634411345,-0.156
1747670866642116721,-0.19
1747670866649822097,-0.161
1747670866657527473,0.083
1747670866665232849,0.623
1747670866672938225,0.924
1747670866680643601,0.041
1747670866688348977,-1.031
1747670866696054353,-0.723
1747670866703759798,-0.151
1747670866711464756,-0.254
1747670866719169714,-0.23700000000000002
1747670866726874672,-0.066
1747670866734579630,-0.112
1747670866742284588,-0.151
1747670866749989546,-0.095
1747670866757694504,-0.095
1747670866765399462,-0.112
1747670866773104420,-0.088
1747670866780809378,-0.078
1747670866788514336,-0.09
1747670866796219294,-0.08
1747670866803924252,-0.063
1747670866811629210,-0.058
1747670866819334168,-0.051000000000000004
1747670866827039126,-0.031
1747670866834744084,-0.012
1747670866842449042,0.007
1747670866850154000,0.031
1747670866857858958,0.056
1747670866865563916,0.083
1747670866873268874,0.112
1747670866880973832,0.129
1747670866888678790,0.11900000000000001
1747670866896383748,0.1
1747670866904088706,0.078
1747670866911793664,0.041
1747670866919498622,-0.017
1747670866927203580,-0.08
1747670866934908538,-0.129
1747670866942613496,-0.166
1747670866950318454,-0.193
1747670866958023412,-0.20500000000000002
1747670866965728370,-0.212
1747670866973433328,-0.22
1747670866981138286,-0.22
1747670866988843244,-0.212
1747670866996548202,-0.20500000000000002
1747670867004253160,-0.20500000000000002
1747670867011958118,-0.202
1747670867019663076,-0.198
1747670867027368034,-0.193
1747670867035072992,-0.185
1747670867042777950,-0.176
1747670867050482908,-0.168
1747670867058187866,-0.163
1747670867065892824,-0.156
1747670867073597782,-0.149
1747670867081302740,-0.14100000000000001
1747670867089007698,-0.139
1747670867096712656,-0.134
1747670867104417614,-0.124
1747670867112122572,-0.122
1747670867119827530,-0.124
1747670867127532488,-0.124
1747670867135237446,-0.122
1747670867142942404,-0.11900000000000001
1747670867150647362,-0.124
1747670867158352320,-0.124
1747670867166057278,-0.122
1747670867173762236,-0.127
1747670867181467194,-0.127
1747670867189172152,-0.122
1747670867196877110,-0.124
1747670867204582068,-0.127
1747670867212287026,-0.11900000000000001
1747670867219991984,-0.114
1747670867227696942,-0.114
1747670867235401900,-0.114
1747670867243106858,-0.122
1747670867250811816,-0.124
1747670867258516774,-0.11900000000000001
1747670867266221797,-0.127,77,780
1747670867273927173,-0.14100000000000001
1747670867281632549,-0.132
1747670867289337925,-0.11
1747670867297043301,-0.095
1747670867304748677,-0.083
1747670867312454053,-0.085
1747670867320159429,-0.083
1747670867327864805,-0.073
1747670867335570181,-0.085
1747670867343275557,-0.112
1747670867350980933,-0.11900000000000001
1747670867358686309,-0.117
1747670867366391685,-0.11900000000000001
1747670867374097061,-0.127
1747670867381802437,-0.129
1747670867389507813,-0.129
1747670867397213189,-0.14100000000000001
1747670867404918565,-0.171
1747670867412623941,-0.14400000000000002
1747670867420329317,0.08
1747670867428034693,0.606
1747670867435740069,0.97
1747670867443445445,0.166
1747670867451150821,-0.973
1747670867458856197,-0.745
1747670867466561573,-0.139
1747670867474266949,-0.227
1747670867481972325,-0.23900000000000002
1747670867489677701,-0.07
1747670867497383077,-0.112
1747670867505088453,-0.156
1747670867512793829,-0.09
1747670867520499205,-0.083
1747670867528204581,-0.105
1747670867535909957,-0.095
1747670867543615333,-0.085
1747670867551320709,-0.085
1747670867559026085,-0.073
1747670867566731461,-0.063
1747670867574436837,-0.056
1747670867582142213,-0.044
1747670867589847589,-0.029
1747670867597552965,-0.012
1747670867605258341,0.007
1747670867612963717,0.031
1747670867620669093,0.058
1747670867628374469,0.09
1747670867636079845,0.11
1747670867643785221,0.122
1747670867651490597,0.122
1747670867659195973,0.107
1747670867666901349,0.083
1747670867674606725,0.051000000000000004
1747670867682312101,0.0
1747670867690017477,-0.061
1747670867697722853,-0.11
1747670867705428229,-0.14400000000000002
1747670867713133605,-0.178
1747670867720838981,-0.2
1747670867728544357,-0.20500000000000002
1747670867736249733,-0.20500000000000002
1747670867743955109,-0.202
1747670867751660485,-0.195
1747670867759365861,-0.19
1747670867767071237,-0.183
1747670867774776613,-0.178
1747670867782481989,-0.176
1747670867790187365,-0.17300000000000001
1747670867797892741,-0.168
1747670867805598117,-0.161
1747670867813303493,-0.156
1747670867821008869,-0.151
1747670867828714314,-0.139
1747670867836419690,-0.132
1747670867844125066,-0.134
1747670867851830442,-0.132
1747670867859535818,-0.124
1747670867867241194,-0.117
1747670867874946570,-0.114
1747670867882651946,-0.112
1747670867890357322,-0.107
1747670867898062698,-0.11
1747670867905768074,-0.112
1747670867913473450,-0.112
1747670867921178826,-0.11
1747670867928884202,-0.11
1747670867936589578,-0.11
1747670867944294954,-0.11
1747670867952000330,-0.11
1747670867959705706,-0.11
1747670867967411082,-0.105
1747670867975116458,-0.105
1747670867982821834,-0.105
1747670867990527210,-0.10200000000000001
1747670867998232586,-0.105
1747670868005937962,-0.105
1747670868013643338,-0.105
1747670868021348714,-0.105
1747670868029054090,-0.1
1747670868036759466,-0.095
1747670868044464842,-0.10200000000000001
1747670868052170218,-0.11
1747670868059875594,-0.11
1747670868067580970,-0.114
1747670868075286346,-0.122
1747670868082991722,-0.127
1747670868090697098,-0.127
1747670868098402474,-0.112
1747670868106107850,-0.085
1747670868113813226,-0.073
1747670868121518602,-0.075
1747670868129223978,-0.066
1747670868136929354,-0.073
1747670868144634730,-0.1
1747670868152340106,-0.114
1747670868160045482,-0.112
1747670868167750858,-0.112
1747670868175456234,-0.114
1747670868183161610,-0.11
1747670868190866986,-0.112
1747670868198572362,-0.122
1747670868206277738,-0.14400000000000002
1747670868213983114,-0.171
1747670868221688490,-0.092
1747670868229393866,0.229
1747670868237099242,0.8140000000000001
1747670868244804618,0.875
1747670868252509994,-0.264
1747670868260215370,-1.046
1747670868267920746,-0.491
1747670868275626122,-0.112
1747670868283331498,-0.271
1747670868291036874,-0.176
1747670868298742250,-0.056
1747670868306447626,-0.132
1747670868314153002,-0.129
1747670868321858378,-0.068
1747670868329563754,-0.08
1747670868337269130,-0.09
1747670868344974506,-0.075
1747670868352679882,-0.08
1747670868360385258,-0.08
1747670868368090634,-0.061
1747670868375796010,-0.048
1747670868383501386,-0.046
1747670868391206831,-0.029,77,720
1747670868398911789,-0.012,,730
1747670868406616747,0.002
1747670868414321705,0.022
1747670868422026663,0.048
1747670868429731621,0.075
1747670868437436579,0.097
1747670868445141537,0.122
1747670868452846495,0.136
1747670868460551453,0.134
1747670868468256411,0.114
1747670868475961369,0.09
1747670868483666327,0.051000000000000004
1747670868491371285,-0.002
1747670868499076243,-0.056
1747670868506781201,-0.10200000000000001
1747670868514486159,-0.146
1747670868522191117,-0.18
1747670868529896075,-0.193
1747670868537601033,-0.198
1747670868545305991,-0.202
1747670868553010949,-0.20700000000000002
1747670868560715907,-0.202
1747670868568420865,-0.198
1747670868576125823,-0.198
1747670868583830781,-0.19
1747670868591535739,-0.17300000000000001
1747670868599240697,-0.166
1747670868606945655,-0.166
1747670868614650613,-0.154
1747670868622355571,-0.146
1747670868630060529,-0.146
1747670868637765487,-0.134
1747670868645470445,-0.122
1747670868653175403,-0.122
1747670868660880361,-0.11900000000000001
1747670868668585319,-0.114
1747670868676290277,-0.114
1747670868683995235,-0.114
1747670868691700193,-0.112
1747670868699405151,-0.105
1747670868707110109,-0.105
1747670868714815067,-0.112
1747670868722520025,-0.114
1747670868730224983,-0.112
1747670868737929941,-0.11900000000000001
1747670868745634899,-0.122
1747670868753339857,-0.114
1747670868761044815,-0.11
1747670868768749773,-0.11900000000000001
1747670868776454731,-0.132
1747670868784159689,-0.124
1747670868791864647,-0.117
1747670868799569605,-0.122
1747670868807274563,-0.124
1747670868814979521,-0.11900000000000001
1747670868822684479,-0.114
1747670868830389437,-0.117
1747670868838094395,-0.127
1747670868845799353,-0.122
1747670868853504311,-0.114
1747670868861209269,-0.114
1747670868868914227,-0.114
1747670868876619185,-0.11900000000000001
1747670868884324143,-0.129
1747670868892029101,-0.134
1747670868899734059,-0.132
1747670868907439017,-0.11900000000000001
1747670868915143975,-0.1
1747670868922848933,-0.085
1747670868930553891,-0.085
1747670868938258849,-0.085
1747670868945963807,-0.08
1747670868953668830,-0.092
1747670868961374206,-0.114
1747670868969079582,-0.117
1747670868976784958,-0.112
1747670868984490334,-0.114
1747670868992195710,-0.11900000000000001
1747670868999901086,-0.114
1747670869007606462,-0.112
1747670869015311838,-0.132
1747670869023017214,-0.156
1747670869030722590,-0.10200000000000001
1747670869038427966,0.18
1747670869046133342,0.758
1747670869053838718,0.8240000000000001
1747670869061544094,-0.34400000000000003
1747670869069249470,-1.164
1747670869076954846,-0.562
1747670869084660222,-0.129
1747670869092365598,-0.291
1747670869100070974,-0.168
1747670869107776350,-0.012
1747670869115481726,-0.097
1747670869123187102,-0.11
1747670869130892478,-0.048
1747670869138597854,-0.058
1747670869146303230,-0.07
1747670869154008606,-0.051000000000000004
1747670869161713982,-0.046
1747670869169419358,-0.046
1747670869177124734,-0.036000000000000004
1747670869184830110,-0.024
1747670869192535486,-0.017
1747670869200240862,0.0
1747670869207946238,0.014
1747670869215651614,0.024
1747670869223356990,0.046
1747670869231062366,0.078
1747670869238767742,0.10200000000000001
1747670869246473118,0.129
1747670869254178494,0.158
1747670869261883870,0.176
1747670869269589246,0.171
1747670869277294622,0.151
1747670869284999998,0.124
1747670869292705374,0.083
1747670869300410750,0.024
1747670869308116126,-0.036000000000000004
1747670869315821502,-0.095
1747670869323526878,-0.14100000000000001
1747670869331232254,-0.171
1747670869338937630,-0.198
1747670869346643006,-0.212
1747670869354348382,-0.215
1747670869362053758,-0.212
1747670869369759134,-0.21
1747670869377464510,-0.202
1747670869385169886,-0.195
1747670869392875262,-0.193
1747670869400580638,-0.188
1747670869408286014,-0.176
1747670869415991390,-0.161
1747670869423696766,-0.151
1747670869431402142,-0.149
1747670869439107518,-0.146
1747670869446812894,-0.136
1747670869454518270,-0.127
1747670869462223646,-0.122
1747670869469929022,-0.124
1747670869477634398,-0.129
1747670869485339774,-0.124
1747670869493045150,-0.11900000000000001
1747670869500750526,-0.122
1747670869508455902,-0.124
1747670869516161347,-0.122,78,764
1747670869523866305,-0.11900000000000001
1747670869531571263,-0.117
1747670869539276221,-0.122
1747670869546981179,-0.124
1747670869554686137,-0.11900000000000001
1747670869562391095,-0.11900000000000001
1747670869570096053,-0.11900000000000001
1747670869577801011,-0.117
1747670869585505969,-0.11900000000000001
1747670869593210927,-0.122
1747670869600915885,-0.117
1747670869608620843,-0.112
1747670869616325801,-0.114
1747670869624030759,-0.117
1747670869631735717,-0.11
1747670869639440675,-0.10200000000000001
1747670869647145633,-0.11
1747670869654850591,-0.124
1747670869662555549,-0.127
1747670869670260507,-0.117
1747670869677965465,-0.1
1747670869685670423,-0.078
1747670869693375381,-0.075
1747670869701080339,-0.085
1747670869708785297,-0.075
1747670869716490255,-0.075
1747670869724195213,-0.097
1747670869731900171,-0.112
1747670869739605129,-0.107
1747670869747310087,-0.105
1747670869755015045,-0.114
1747670869762720003,-0.11900000000000001
1747670869770424961,-0.117
1747670869778129919,-0.122
1747670869785834877,-0.14400000000000002
1747670869793539835,-0.151
1747670869801244793,-0.039
1747670869808949751,0.361
1747670869816654709,0.921
1747670869824359667,0.5670000000000001
1747670869832064625,-0.762
1747670869839769583,-1.066
1747670869847474541,-0.325
1747670869855179499,-0.19
1747670869862884457,-0.31
1747670869870589415,-0.097
1747670869878294373,-0.041
1747670869885999331,-0.14100000000000001
1747670869893704289,-0.10200000000000001
1747670869901409247,-0.056
1747670869909114205,-0.085
1747670869916819163,-0.088
1747670869924524121,-0.066
1747670869932229079,-0.066
1747670869939934037,-0.068
1747670869947638995,-0.056
1747670869955343953,-0.053
1747670869963048911,-0.041
1747670869970753869,-0.022
1747670869978458827,-0.012
1747670869986163785,0.0
1747670869993868743,0.029
1747670870001573701,0.061
1747670870009278659,0.085
1747670870016983617,0.107
1747670870024688575,0.132
1747670870032393533,0.139
1747670870040098491,0.129
1747670870047803449,0.112
1747670870055508407,0.083
1747670870063213365,0.029
1747670870070918323,-0.036000000000000004
1747670870078623346,-0.1,78,807
1747670870086328722,-0.149
1747670870094034098,-0.185
1747670870101739474,-0.20500000000000002
1747670870109444850,-0.217
1747670870117150226,-0.224
1747670870124855602,-0.227
1747670870132560978,-0.224
1747670870140266354,-0.22
1747670870147971730,-0.222
1747670870155677106,-0.227
1747670870163382482,-0.217
1747670870171087858,-0.202
1747670870178793234,-0.2
1747670870186498610,-0.193
1747670870194203986,-0.178
1747670870201909362,-0.171
1747670870209614738,-0.168
1747670870217320114,-0.156
1747670870225025490,-0.14400000000000002
1747670870232730866,-0.139
1747670870240436242,-0.136
1747670870248141618,-0.134
1747670870255846994,-0.132
1747670870263552370,-0.134
1747670870271257746,-0.136
1747670870278963122,-0.134
1747670870286668498,-0.134
1747670870294373874,-0.14100000000000001
1747670870302079250,-0.14400000000000002
1747670870309784626,-0.139
1747670870317490002,-0.139
1747670870325195378,-0.14100000000000001
1747670870332900754,-0.139
1747670870340606130,-0.136
1747670870348311506,-0.134
1747670870356016882,-0.139
1747670870363722258,-0.139
1747670870371427634,-0.139
1747670870379133010,-0.136
1747670870386838386,-0.136
1747670870394543762,-0.136
1747670870402249138,-0.134
1747670870409954514,-0.139
1747670870417659890,-0.154
1747670870425365266,-0.158
1747670870433070642,-0.14100000000000001
1747670870440776018,-0.114
1747670870448481394,-0.095
1747670870456186770,-0.097
1747670870463892146,-0.105
1747670870471597522,-0.097
1747670870479302898,-0.097
1747670870487008274,-0.117
1747670870494713650,-0.127
1747670870502419026,-0.127
1747670870510124402,-0.134
1747670870517829778,-0.139
1747670870525535154,-0.132
1747670870533240530,-0.129
1747670870540945906,-0.14100000000000001
1747670870548651282,-0.171
1747670870556356658,-0.185
1747670870564062034,-0.068
1747670870571767410,0.315
1747670870579472786,0.887
1747670870587178162,0.684
1747670870594883538,-0.5670000000000001
1747670870602588914,-1.022
1747670870610294290,-0.357
1747670870617999666,-0.156
1747670870625705042,-0.295
1747670870633410418,-0.14400000000000002
1747670870641115863,-0.078
1747670870648821239,-0.156
1747670870656526615,-0.129
1747670870664231991,-0.088
1747670870671937367,-0.11
1747670870679642743,-0.107
1747670870687348119,-0.088
1747670870695053495,-0.095
1747670870702758871,-0.097
1747670870710464247,-0.08
1747670870718169623,-0.073
1747670870725874999,-0.07
1747670870733580375,-0.058
1747670870741285751,-0.039
1747670870748991127,-0.019
1747670870756696503,0.0
1747670870764401879,0.026000000000000002
1747670870772107255,0.058
1747670870779812631,0.083
1747670870787518007,0.1
1747670870795223383,0.11
1747670870802928759,0.105
1747670870810634135,0.085
1747670870818339511,0.056
1747670870826044887,0.014
1747670870833750263,-0.044
1747670870841455639,-0.1
1747670870849161015,-0.14100000000000001
1747670870856866391,-0.176
1747670870864571767,-0.202
1747670870872277143,-0.217
1747670870879982519,-0.22
1747670870887687895,-0.217
1747670870895393271,-0.212
1747670870903098647,-0.21
1747670870910804023,-0.20700000000000002
1747670870918509399,-0.2
1747670870926214775,-0.198
1747670870933920151,-0.2
1747670870941625527,-0.193
1747670870949330903,-0.183
1747670870957036279,-0.17300000000000001
1747670870964741655,-0.168
1747670870972447031,-0.163
1747670870980152407,-0.156
1747670870987857783,-0.149
1747670870995563159,-0.14400000000000002
1747670871003268535,-0.139
1747670871010973911,-0.139
1747670871018679287,-0.134
1747670871026384663,-0.124
1747670871034090039,-0.124
1747670871041795415,-0.127
1747670871049500791,-0.127
1747670871057206167,-0.127
1747670871064911543,-0.129
1747670871072616919,-0.132
1747670871080322295,-0.129
1747670871088027671,-0.129
1747670871095733047,-0.134
1747670871103438423,-0.136
1747670871111143799,-0.136
1747670871118849175,-0.134
1747670871126554551,-0.129
1747670871134259927,-0.127
1747670871141965303,-0.127
1747670871149670679,-0.127
1747670871157376055,-0.127
1747670871165081431,-0.127
1747670871172786807,-0.124
1747670871180492183,-0.124
1747670871188197559,-0.132
1747670871195902935,-0.14400000000000002
1747670871203608380,-0.151,78,809
1747670871211313478,-0.136
1747670871219018576,-0.114
1747670871226723674,-0.09
1747670871234428772,-0.083
1747670871242133870,-0.09
1747670871249838968,-0.085
1747670871257544066,-0.083
1747670871265249164,-0.1
1747670871272954262,-0.117
1747670871280659360,-0.122
1747670871288364458,-0.124
1747670871296069556,-0.127
1747670871303774654,-0.11900000000000001
1747670871311479752,-0.114
1747670871319184850,-0.122
1747670871326889948,-0.151
1747670871334595046,-0.183
1747670871342300144,-0.097
1747670871350005242,0.246
1747670871357710340,0.833
1747670871365415438,0.846
1747670871373120536,-0.313
1747670871380825634,-1.034
1747670871388530732,-0.462
1747670871396235830,-0.114
1747670871403940928,-0.271
1747670871411646026,-0.17300000000000001
1747670871419351124,-0.068
1747670871427056222,-0.14100000000000001
1747670871434761320,-0.132
1747670871442466418,-0.08
1747670871450171516,-0.097
1747670871457876614,-0.105
1747670871465581712,-0.08
1747670871473286810,-0.083
1747670871480991908,-0.085
1747670871488697006,-0.07
1747670871496402104,-0.063
1747670871504107202,-0.058
1747670871511812300,-0.041
1747670871519517398,-0.024
1747670871527222496,-0.009000000000000001
1747670871534927594,0.007
1747670871542632692,0.036000000000000004
1747670871550337790,0.063
1747670871558042888,0.085
1747670871565747986,0.105
1747670871573453084,0.117
1747670871581158182,0.117
1747670871588863280,0.10200000000000001
1747670871596568378,0.073
1747670871604273476,0.034
1747670871611978574,-0.014
1747670871619683672,-0.068
1747670871627388770,-0.11900000000000001
1747670871635093868,-0.158
1747670871642798966,-0.183
1747670871650504064,-0.198
1747670871658209162,-0.20500000000000002
1747670871665914260,-0.2
1747670871673619358,-0.2
1747670871681324456,-0.202
1747670871689029554,-0.198
1747670871696734652,-0.188
1747670871704439750,-0.18
1747670871712144848,-0.178
1747670871719849946,-0.17300000000000001
1747670871727555044,-0.168
1747670871735260142,-0.163
1747670871742965240,-0.151
1747670871750670338,-0.14400000000000002
1747670871758375436,-0.146
1747670871766080549,-0.14100000000000001
1747670871773785786,-0.132
1747670871781491023,-0.127
1747670871789196260,-0.129
1747670871796901497,-0.124
1747670871804606734,-0.11900000000000001
1747670871812311971,-0.122
1747670871820017208,-0.122
1747670871827722445,-0.11900000000000001
1747670871835427682,-0.117
1747670871843132919,-0.122
1747670871850838156,-0.127
1747670871858543393,-0.127
1747670871866248630,-0.124
1747670871873953867,-0.122
1747670871881659104,-0.117
1747670871889364341,-0.11900000000000001
1747670871897069578,-0.11900000000000001
1747670871904774815,-0.117
1747670871912480052,-0.11900000000000001
1747670871920185289,-0.122
1747670871927890526,-0.122
1747670871935595763,-0.11900000000000001
1747670871943301000,-0.11900000000000001
1747670871951006237,-0.117
1747670871958711474,-0.114
1747670871966416711,-0.114
1747670871974121948,-0.117
1747670871981827185,-0.117
1747670871989532422,-0.117
1747670871997237659,-0.124
1747670872004942896,-0.134
1747670872012648133,-0.134
1747670872020353370,-0.114
1747670872028058607,-0.085
1747670872035763844,-0.075
1747670872043469081,-0.08
1747670872051174318,-0.078
1747670872058879555,-0.078
1747670872066584792,-0.097
1747670872074290029,-0.11
1747670872081995266,-0.107
1747670872089700503,-0.114
1747670872097405740,-0.122
1747670872105110977,-0.114
1747670872112816214,-0.112
1747670872120521451,-0.117
1747670872128226688,-0.14400000000000002
1747670872135931925,-0.168
1747670872143637162,-0.073
1747670872151342399,0.278
1747670872159047636,0.86
1747670872166752873,0.792
1747670872174458110,-0.427
1747670872182163347,-1.056
1747670872189868584,-0.42
1747670872197573821,-0.122
1747670872205279058,-0.28300000000000003
1747670872212984295,-0.156
1747670872220689532,-0.056
1747670872228394769,-0.134
1747670872236100006,-0.11900000000000001
1747670872243805243,-0.07
1747670872251510480,-0.088
1747670872259215717,-0.092
1747670872266920954,-0.07
1747670872274626191,-0.07
1747670872282331428,-0.073
1747670872290036665,-0.061
1747670872297741902,-0.048
1747670872305447139,-0.044
1747670872313152376,-0.036000000000000004
1747670872320857613,-0.017
1747670872328562896,0.004,77,769
1747670872336268272,0.022,,764
1747670872343973648,0.046
1747670872351679024,0.08
1747670872359384400,0.105
1747670872367089776,0.11900000000000001
1747670872374795152,0.132
1747670872382500528,0.132
1747670872390205904,0.11900000000000001
1747670872397911280,0.088
1747670872405616656,0.046
1747670872413322032,0.0
1747670872421027408,-0.051000000000000004
1747670872428732784,-0.114
1747670872436438160,-0.161
1747670872444143536,-0.18
1747670872451848912,-0.195
1747670872459554288,-0.212
1747670872467259664,-0.215
1747670872474965040,-0.212
1747670872482670416,-0.21
1747670872490375792,-0.20700000000000002
1747670872498081168,-0.198
1747670872505786544,-0.19
1747670872513491920,-0.185
1747670872521197296,-0.178
1747670872528902672,-0.168
1747670872536608048,-0.163
1747670872544313424,-0.154
1747670872552018800,-0.14400000000000002
1747670872559724176,-0.139
1747670872567429552,-0.139
1747670872575134928,-0.134
1747670872582840304,-0.127
1747670872590545680,-0.124
1747670872598251056,-0.132
1747670872605956432,-0.132
1747670872613661808,-0.127
1747670872621367184,-0.122
1747670872629072560,-0.122
1747670872636777936,-0.129
1747670872644483312,-0.129
1747670872652188688,-0.11900000000000001
1747670872659894064,-0.122
1747670872667599440,-0.129
1747670872675304816,-0.129
1747670872683010192,-0.124
1747670872690715568,-0.122
1747670872698420944,-0.124
1747670872706126320,-0.127
1747670872713831696,-0.122
1747670872721537072,-0.117
1747670872729242448,-0.127
1747670872736947824,-0.129
1747670872744653200,-0.11900000000000001
1747670872752358576,-0.117
1747670872760063952,-0.11900000000000001
1747670872767769328,-0.11900000000000001
1747670872775474704,-0.11900000000000001
1747670872783180080,-0.122
1747670872790885456,-0.129
1747670872798590832,-0.132
1747670872806296208,-0.122
1747670872814001584,-0.097
1747670872821706960,-0.078
1747670872829412336,-0.08
1747670872837117712,-0.085
1747670872844823088,-0.073
1747670872852528464,-0.085
1747670872860233840,-0.11
1747670872867939216,-0.114
1747670872875644592,-0.114
1747670872883349968,-0.11900000000000001
1747670872891055413,-0.117
1747670872898760371,-0.117
1747670872906465329,-0.122
1747670872914170287,-0.136
1747670872921875245,-0.154
1747670872929580203,-0.1
1747670872937285161,0.178
1747670872944990119,0.748
1747670872952695077,0.784
1747670872960400035,-0.40800000000000003
1747670872968104993,-1.19
1747670872975809951,-0.545
1747670872983514909,-0.129
1747670872991219867,-0.31
1747670872998924825,-0.168
1747670873006629783,-0.004
1747670873014334741,-0.10200000000000001
1747670873022039699,-0.11
1747670873029744657,-0.041
1747670873037449615,-0.061
1747670873045154573,-0.075
1747670873052859531,-0.053
1747670873060564489,-0.051000000000000004
1747670873068269447,-0.053
1747670873075974405,-0.039
1747670873083679363,-0.029
1747670873091384321,-0.024
1747670873099089279,-0.014
1747670873106794237,0.0
1747670873114499195,0.019
1747670873122204153,0.044
1747670873129909111,0.073
1747670873137614069,0.097
1747670873145319027,0.11900000000000001
1747670873153023985,0.14400000000000002
1747670873160728943,0.158
1747670873168433901,0.154
1747670873176138859,0.134
1747670873183843817,0.114
1747670873191548775,0.085
1747670873199253733,0.022
1747670873206958691,-0.056
1747670873214663649,-0.117
1747670873222368607,-0.156
1747670873230073565,-0.188
1747670873237778523,-0.20700000000000002
1747670873245483481,-0.217
1747670873253188439,-0.227
1747670873260893397,-0.232
1747670873268598355,-0.227
1747670873276303313,-0.22
1747670873284008271,-0.215
1747670873291713229,-0.21
1747670873299418187,-0.2
1747670873307123145,-0.188
1747670873314828103,-0.18
1747670873322533061,-0.17300000000000001
1747670873330238019,-0.171
1747670873337942977,-0.166
1747670873345647935,-0.149
1747670873353352893,-0.14100000000000001
1747670873361057851,-0.14400000000000002
1747670873368762809,-0.146
1747670873376467767,-0.14400000000000002
1747670873384172725,-0.139
1747670873391877683,-0.14100000000000001
1747670873399582641,-0.14400000000000002
1747670873407287599,-0.146
1747670873414992557,-0.14400000000000002
1747670873422697515,-0.14400000000000002
1747670873430402473,-0.14100000000000001
1747670873438107431,-0.139
1747670873445812389,-0.139
1747670873453517412,-0.14100000000000001,77,779
1747670873461222788,-0.14100000000000001
1747670873468928164,-0.139
1747670873476633540,-0.136
1747670873484338916,-0.134
1747670873492044292,-0.136
1747670873499749668,-0.136
1747670873507455044,-0.139
1747670873515160420,-0.14400000000000002
1747670873522865796,-0.151
1747670873530571172,-0.149
1747670873538276548,-0.134
1747670873545981924,-0.117
1747670873553687300,-0.1
1747670873561392676,-0.092
1747670873569098052,-0.097
1747670873576803428,-0.095
1747670873584508804,-0.092
1747670873592214180,-0.11
1747670873599919556,-0.127
1747670873607624932,-0.132
1747670873615330308,-0.134
1747670873623035684,-0.136
1747670873630741060,-0.134
1747670873638446436,-0.132
1747670873646151812,-0.134
1747670873653857188,-0.156
1747670873661562564,-0.178
1747670873669267940,-0.09
1747670873676973316,0.269
1747670873684678692,0.853
1747670873692384068,0.6960000000000001
1747670873700089444,-0.586
1747670873707794820,-1.1320000000000001
1747670873715500196,-0.432
1747670873723205572,-0.163
1747670873730910948,-0.315
1747670873738616324,-0.134
1747670873746321700,-0.029
1747670873754027076,-0.132
1747670873761732452,-0.11
1747670873769437828,-0.051000000000000004
1747670873777143204,-0.083
1747670873784848580,-0.09
1747670873792553956,-0.063
1747670873800259332,-0.061
1747670873807964708,-0.068
1747670873815670084,-0.056
1747670873823375460,-0.041
1747670873831080836,-0.031
1747670873838786212,-0.022
1747670873846491588,-0.004
1747670873854196964,0.009000000000000001
1747670873861902340,0.031
1747670873869607716,0.056
1747670873877313092,0.085
1747670873885018468,0.117
1747670873892723844,0.134
1747670873900429220,0.136
1747670873908134596,0.136
1747670873915839972,0.124
1747670873923545348,0.09
1747670873931250724,0.041
1747670873938956100,-0.017
1747670873946661476,-0.08
1747670873954366852,-0.134
1747670873962072228,-0.171
1747670873969777604,-0.195
1747670873977482980,-0.20700000000000002
1747670873985188356,-0.212
1747670873992893732,-0.215
1747670874000599108,-0.215
1747670874008304484,-0.215
1747670874016009929,-0.212
1747670874023714887,-0.20500000000000002
1747670874031419845,-0.2
1747670874039124803,-0.195
1747670874046829761,-0.183
1747670874054534719,-0.17300000000000001
1747670874062239677,-0.171
1747670874069944635,-0.163
1747670874077649593,-0.151
1747670874085354551,-0.14100000000000001
1747670874093059509,-0.136
1747670874100764467,-0.134
1747670874108469425,-0.134
1747670874116174383,-0.134
1747670874123879341,-0.129
1747670874131584299,-0.129
1747670874139289257,-0.134
1747670874146994215,-0.134
1747670874154699173,-0.129
1747670874162404131,-0.132
1747670874170109089,-0.136
1747670874177814047,-0.136
1747670874185519005,-0.132
1747670874193223963,-0.132
1747670874200928921,-0.132
1747670874208633879,-0.129
1747670874216338837,-0.129
1747670874224043795,-0.129
1747670874231748753,-0.129
1747670874239453711,-0.129
1747670874247158669,-0.132
1747670874254863627,-0.14400000000000002
1747670874262568585,-0.154
1747670874270273543,-0.14100000000000001
1747670874277978501,-0.122
1747670874285683459,-0.105
1747670874293388417,-0.097
1747670874301093375,-0.092
1747670874308798333,-0.09
1747670874316503291,-0.09
1747670874324208249,-0.10200000000000001
1747670874331913207,-0.117
1747670874339618165,-0.124
1747670874347323123,-0.129
1747670874355028081,-0.136
1747670874362733039,-0.134
1747670874370437997,-0.129
1747670874378142955,-0.132
1747670874385847913,-0.146
1747670874393552871,-0.18
1747670874401257829,-0.171
1747670874408962787,0.024
1747670874416667745,0.511
1747670874424372703,0.9510000000000001
1747670874432077661,0.305
1747670874439782619,-0.917
1747670874447487577,-0.86
1747670874455192535,-0.19
1747670874462897493,-0.212
1747670874470602451,-0.261
1747670874478307409,-0.08
1747670874486012367,-0.095
1747670874493717325,-0.154
1747670874501422283,-0.092
1747670874509127241,-0.078
1747670874516832199,-0.107
1747670874524537157,-0.092
1747670874532242115,-0.078
1747670874539947073,-0.085
1747670874547652031,-0.075
1747670874555356989,-0.063
1747670874563061947,-0.056
1747670874570766905,-0.048
1747670874578471928,-0.036000000000000004,77,801
1747670874586177304,-0.017
1747670874593882680,0.002
1747670874601588056,0.026000000000000002
1747670874609293432,0.056
1747670874616998808,0.078
1747670874624704184,0.1
1747670874632409560,0.117
1747670874640114936,0.11900000000000001
1747670874647820312,0.11
1747670874655525688,0.088
1747670874663231064,0.053
1747670874670936440,0.007
1747670874678641816,-0.053
1747670874686347192,-0.11
1747670874694052568,-0.146
1747670874701757944,-0.17300000000000001
1747670874709463320,-0.195
1747670874717168696,-0.20700000000000002
1747670874724874072,-0.21
1747670874732579448,-0.21
1747670874740284824,-0.20700000000000002
1747670874747990200,-0.2
1747670874755695576,-0.193
1747670874763400952,-0.19
1747670874771106328,-0.185
1747670874778811704,-0.176
1747670874786517080,-0.171
1747670874794222456,-0.166
1747670874801927832,-0.161
1747670874809633208,-0.154
1747670874817338584,-0.149
1747670874825043960,-0.14100000000000001
1747670874832749336,-0.134
1747670874840454712,-0.129
1747670874848160088,-0.124
1747670874855865464,-0.124
1747670874863570840,-0.122
1747670874871276216,-0.117
1747670874878981592,-0.11900000000000001
1747670874886686968,-0.124
1747670874894392344,-0.127
1747670874902097720,-0.122
1747670874909803096,-0.11900000000000001
1747670874917508472,-0.122
1747670874925213848,-0.124
1747670874932919224,-0.122
1747670874940624600,-0.122
1747670874948329976,-0.122
1747670874956035352,-0.122
1747670874963740728,-0.11900000000000001
1747670874971446104,-0.11900000000000001
1747670874979151480,-0.114
1747670874986856856,-0.114
1747670874994562232,-0.11900000000000001
1747670875002267608,-0.11900000000000001
1747670875009972984,-0.112
1747670875017678360,-0.114
1747670875025383736,-0.122
1747670875033089112,-0.132
1747670875040794488,-0.134
1747670875048499864,-0.11900000000000001
1747670875056205240,-0.10200000000000001
1747670875063910616,-0.088
1747670875071615992,-0.075
1747670875079321368,-0.078
1747670875087026744,-0.083
1747670875094732120,-0.08
1747670875102437496,-0.088
1747670875110142872,-0.105
1747670875117848248,-0.112
1747670875125553624,-0.11900000000000001
1747670875133259000,-0.124
1747670875140964445,-0.122,77,786
1747670875148669821,-0.117,,738
1747670875156375197,-0.11900000000000001
1747670875164080573,-0.134
1747670875171785949,-0.166
1747670875179491325,-0.139
1747670875187196701,0.088
1747670875194902077,0.613
1747670875202607453,0.968
1747670875210312829,0.163
1747670875218018205,-0.963
1747670875225723581,-0.733
1747670875233428957,-0.136
1747670875241134333,-0.222
1747670875248839709,-0.234
1747670875256545085,-0.068
1747670875264250461,-0.10200000000000001
1747670875271955837,-0.14100000000000001
1747670875279661213,-0.085
1747670875287366589,-0.078
1747670875295071965,-0.10200000000000001
1747670875302777341,-0.088
1747670875310482717,-0.075
1747670875318188093,-0.078
1747670875325893469,-0.068
1747670875333598845,-0.058
1747670875341304221,-0.051000000000000004
1747670875349009597,-0.039
1747670875356714973,-0.022
1747670875364420349,-0.007
1747670875372125725,0.007
1747670875379831101,0.029
1747670875387536477,0.056
1747670875395241853,0.08
1747670875402947229,0.10200000000000001
1747670875410652605,0.117
1747670875418357981,0.117
1747670875426063357,0.105
1747670875433768733,0.088
1747670875441474109,0.053
1747670875449179485,0.004
1747670875456884861,-0.048
1747670875464590237,-0.097
1747670875472295613,-0.136
1747670875480000989,-0.163
1747670875487706365,-0.185
1747670875495411741,-0.198
1747670875503117117,-0.2
1747670875510822493,-0.198
1747670875518527869,-0.2
1747670875526233245,-0.198
1747670875533938621,-0.19
1747670875541643997,-0.183
1747670875549349373,-0.18
1747670875557054749,-0.17300000000000001
1747670875564760125,-0.163
1747670875572465501,-0.158
1747670875580170877,-0.154
1747670875587876253,-0.146
1747670875595581629,-0.14100000000000001
1747670875603287005,-0.136
1747670875610992381,-0.134
1747670875618697757,-0.132
1747670875626403133,-0.132
1747670875634108509,-0.132
1747670875641813885,-0.124
1747670875649519261,-0.11900000000000001
1747670875657224637,-0.122
1747670875664930013,-0.122
1747670875672635389,-0.122
1747670875680340765,-0.124
1747670875688046141,-0.129
1747670875695751517,-0.132
1747670875703456962,-0.122
1747670875711161920,-0.11900000000000001
1747670875718866878,-0.124
1747670875726571836,-0.124
1747670875734276794,-0.11900000000000001
1747670875741981752,-0.11900000000000001
1747670875749686710,-0.122
1747670875757391668,-0.122
1747670875765096626,-0.114
1747670875772801584,-0.112
1747670875780506542,-0.117
1747670875788211500,-0.11900000000000001
1747670875795916458,-0.114
1747670875803621416,-0.11
1747670875811326374,-0.114
1747670875819031332,-0.11900000000000001
1747670875826736290,-0.127
1747670875834441248,-0.134
1747670875842146206,-0.124
1747670875849851164,-0.105
1747670875857556122,-0.085
1747670875865261080,-0.075
1747670875872966038,-0.078
1747670875880670996,-0.078
1747670875888375954,-0.075
1747670875896080912,-0.088
1747670875903785870,-0.107
1747670875911490828,-0.114
1747670875919195786,-0.112
1747670875926900744,-0.112
1747670875934605702,-0.112
1747670875942310660,-0.11
1747670875950015618,-0.117
1747670875957720576,-0.134
1747670875965425534,-0.158
1747670875973130492,-0.139
1747670875980835450,0.068
1747670875988540408,0.577
1747670875996245366,0.968
1747670876003950324,0.215
1747670876011655282,-0.9580000000000001
1747670876019360240,-0.78
1747670876027065198,-0.14400000000000002
1747670876034770156,-0.215
1747670876042475114,-0.234
1747670876050180072,-0.053
1747670876057885030,-0.088
1747670876065589988,-0.136
1747670876073294946,-0.07
1747670876080999904,-0.066
1747670876088704862,-0.097
1747670876096409820,-0.078
1747670876104114778,-0.061
1747670876111819736,-0.07
1747670876119524694,-0.068
1747670876127229652,-0.053
1747670876134934610,-0.044
1747670876142639568,-0.029
1747670876150344526,-0.012
1747670876158049484,-0.002
1747670876165754442,0.014
1747670876173459400,0.046
1747670876181164358,0.073
1747670876188869316,0.095
1747670876196574274,0.11900000000000001
1747670876204279232,0.134
1747670876211984190,0.132
1747670876219689148,0.124
1747670876227394106,0.107
1747670876235099064,0.075
1747670876242804022,0.034
1747670876250508980,-0.017
1747670876258213938,-0.075
1747670876265918959,-0.124,77,737
1747670876273624335,-0.154
1747670876281329711,-0.183
1747670876289035087,-0.2
1747670876296740463,-0.2
1747670876304445839,-0.195
1747670876312151215,-0.195
1747670876319856591,-0.193
1747670876327561967,-0.193
1747670876335267343,-0.185
1747670876342972719,-0.17300000000000001
1747670876350678095,-0.168
1747670876358383471,-0.166
1747670876366088847,-0.149
1747670876373794223,-0.136
1747670876381499599,-0.139
1747670876389204975,-0.134
1747670876396910351,-0.124
1747670876404615727,-0.124
1747670876412321103,-0.129
1747670876420026479,-0.124
1747670876427731855,-0.117
1747670876435437231,-0.114
1747670876443142607,-0.117
1747670876450847983,-0.117
1747670876458553359,-0.117
1747670876466258735,-0.11900000000000001
1747670876473964111,-0.122
1747670876481669487,-0.11900000000000001
1747670876489374863,-0.117
1747670876497080239,-0.117
1747670876504785615,-0.114
1747670876512490991,-0.117
1747670876520196367,-0.122
1747670876527901743,-0.11900000000000001
1747670876535607119,-0.117
1747670876543312495,-0.117
1747670876551017871,-0.11900000000000001
1747670876558723247,-0.117
1747670876566428623,-0.114
1747670876574133999,-0.114
1747670876581839375,-0.114
1747670876589544751,-0.11900000000000001
1747670876597250127,-0.129
1747670876604955503,-0.129
1747670876612660879,-0.112
1747670876620366255,-0.092
1747670876628071631,-0.075
1747670876635777007,-0.068
1747670876643482383,-0.078
1747670876651187759,-0.083
1747670876658893135,-0.085
1747670876666598511,-0.097
1747670876674303887,-0.112
1747670876682009263,-0.11900000000000001
1747670876689714639,-0.117
1747670876697420015,-0.117
1747670876705125391,-0.117
1747670876712830767,-0.11900000000000001
1747670876720536143,-0.122
1747670876728241519,-0.139
1747670876735946895,-0.158
1747670876743652271,-0.075
1747670876751357647,0.259
1747670876759063023,0.8260000000000001
1747670876766768399,0.682
1747670876774473775,-0.604
1747670876782179151,-1.168
1747670876789884527,-0.44
1747670876797589903,-0.14100000000000001
1747670876805295279,-0.308
1747670876813000655,-0.129
1747670876820706031,-0.012
1747670876828411478,-0.114
1747670876836116436,-0.097
1747670876843821394,-0.036000000000000004
1747670876851526352,-0.066
1747670876859231310,-0.07
1747670876866936268,-0.046
1747670876874641226,-0.046
1747670876882346184,-0.046
1747670876890051142,-0.036000000000000004
1747670876897756100,-0.029
1747670876905461058,-0.017
1747670876913166016,0.0
1747670876920870974,0.012
1747670876928575932,0.026000000000000002
1747670876936280890,0.051000000000000004
1747670876943985848,0.08
1747670876951690806,0.107
1747670876959395764,0.132
1747670876967100722,0.151
1747670876974805680,0.163
1747670876982510638,0.158
1747670876990215596,0.14100000000000001
1747670876997920554,0.114
1747670877005625512,0.078
1747670877013330470,0.017
1747670877021035428,-0.056
1747670877028740386,-0.117
1747670877036445344,-0.156
1747670877044150302,-0.185
1747670877051855260,-0.21
1747670877059560218,-0.222
1747670877067265176,-0.222
1747670877074970134,-0.222
1747670877082675092,-0.22
1747670877090380050,-0.212
1747670877098085008,-0.20500000000000002
1747670877105789966,-0.202
1747670877113494924,-0.195
